Timestamp,GSR,PPG
1650546426822.4001,104.52000000000001,0.0
1650546426823.551,104.52000000000001,0.0
1650546426851.004,104.52000000000001,0.0
1650546426852.207,104.52000000000001,0.0
1650546426853.386,104.52000000000001,0.0
1650546426853.608,104.52000000000001,0.0
1650546426854.702,104.52000000000001,0.0
1650546426868.366,104.52000000000001,0.0
1650546426868.562,108.6096479068478,0.0
1650546426893.5261,108.6096479068478,0.0
1650546426894.716,108.54945968412302,0.0
1650546426924.74,108.48933813348103,0.0
1650546426929.616,108.54945968412302,0.0
1650546426929.774,108.48933813348103,0.0
1650546426930.967,108.48933813348103,0.0
1650546426932.105,108.42928314420149,0.0
1650546426932.229,108.48933813348103,0.0
1650546426959.754,108.42928314420149,0.0
1650546426960.9832,108.48933813348103,0.0
1650546426962.11,108.36929460580913,0.0
1650546426962.2642,108.42928314420149,0.0
1650546426983.4958,108.30937240807299,0.0
1650546426984.708,108.36929460580913,0.0
1650546426998.382,108.36929460580913,0.0
1650546426998.6328,108.30937240807299,0.0
1650546426999.861,108.36929460580913,0.0
1650546427027.2651,108.24951644100581,0.0
1650546427028.495,108.24951644100581,0.0
1650546427040.956,108.24951644100581,0.0
1650546427041.197,108.30937240807299,0.0
1650546427042.294,108.24951644100581,0.0
1650546427056.0442,108.1897265948633,0.0
1650546427056.197,108.24951644100581,0.0
1650546427092.28,108.24951644100581,0.0
1650546427093.541,108.1897265948633,0.0
1650546427102.3208,108.1897265948633,0.0
1650546427103.397,108.1897265948633,0.0
1650546427103.519,108.1897265948633,0.0
1650546427105.576,108.13000276014353,0.0
1650546427118.412,108.13000276014353,0.0
1650546427118.583,108.13000276014353,0.0
1650546427144.785,108.13000276014353,0.0
1650546427146.009,108.13000276014353,0.0
1650546427166.138,108.01075268817205,0.0
1650546427167.213,108.07034482758621,0.0
1650546427167.369,108.13000276014353,0.0
1650546427168.483,108.07034482758621,0.0
1650546427195.942,108.01075268817205,0.0
1650546427196.095,108.07034482758621,0.0
1650546427197.3528,108.01075268817205,0.0
1650546427219.798,108.01075268817205,0.0
1650546427221.011,107.95122623312207,0.0
1650546427222.1602,107.95122623312207,0.0
1650546427222.309,108.01075268817205,0.0
1650546427236.0972,108.01075268817205,0.0
1650546427260.953,107.891765353897,0.0
1650546427261.1401,107.891765353897,0.0
1650546427262.27,107.95122623312207,0.0
1650546427287.3188,107.891765353897,0.0
1650546427288.492,107.891765353897,0.0
1650546427289.6309,107.83236994219654,0.0
1650546427289.693,107.891765353897,0.0
1650546427296.0962,107.83236994219654,0.0
1650546427328.5042,107.77303988995874,0.0
1650546427328.742,107.83236994219654,0.0
1650546427329.8372,107.83236994219654,0.0
1650546427344.809,107.83236994219654,0.0
1650546427345.9321,107.77303988995874,0.0
1650546427346.079,107.77303988995874,0.0
1650546427347.3,107.77303988995874,0.0
1650546427372.3992,107.77303988995874,0.0
1650546427373.461,107.71377508935937,0.0
1650546427373.8352,107.71377508935937,0.0
1650546427403.5771,107.71377508935937,0.0
1650546427404.779,107.71377508935937,0.0
1650546427406.1638,107.59544081296347,0.0
1650546427412.256,107.65457543281121,0.0
1650546427412.526,107.71377508935937,0.0
1650546427437.311,107.59544081296347,0.0
1650546427438.527,107.59544081296347,0.0
1650546427438.725,107.59544081296347,0.0
1650546427458.6091,107.59544081296347,0.0
1650546427459.824,107.53637112270108,0.0
1650546427473.5142,107.59544081296347,0.0
1650546427473.694,107.53637112270108,0.0
1650546427474.8088,107.59544081296347,0.0
1650546427506.092,107.59544081296347,0.0
1650546427507.214,107.47736625514403,0.0
1650546427507.383,107.53637112270108,0.0
1650546427519.987,107.47736625514403,0.0
1650546427521.072,107.47736625514403,0.0
1650546427522.327,107.41842610364684,0.0
1650546427537.3818,107.35955056179776,0.0
1650546427537.589,107.30073952341824,0.0
1650546427564.911,107.35955056179776,0.0
1650546427565.9749,107.30073952341824,0.0
1650546427566.118,107.30073952341824,0.0
1650546427584.851,107.30073952341824,0.0
1650546427586.066,107.30073952341824,0.0
1650546427587.343,107.18331053351574,0.0
1650546427614.825,107.24199288256229,0.0
1650546427615.064,107.12469237079574,0.0
1650546427616.082,107.24199288256229,0.0
1650546427641.002,107.12469237079574,0.0
1650546427641.2,107.12469237079574,0.0
1650546427642.385,107.12469237079574,0.0
1650546427648.683,107.12469237079574,0.0
1650546427649.847,107.12469237079574,0.0
1650546427677.326,107.06613828915005,0.0
1650546427677.6682,107.00764818355641,0.0
1650546427678.633,107.06613828915005,0.0
1650546427679.7559,106.94922194922195,0.0
1650546427679.908,106.94922194922195,0.0
1650546427706.1091,106.89085948158255,0.0
1650546427707.4348,107.00764818355641,0.0
1650546427708.699,106.89085948158255,0.0
1650546427739.772,106.94922194922195,0.0
1650546427739.9722,106.94922194922195,0.0
1650546427741.106,106.94922194922195,0.0
1650546427763.705,106.89085948158255,0.0
1650546427763.927,106.89085948158255,0.0
1650546427764.944,106.94922194922195,0.0
1650546427766.2139,106.89085948158255,0.0
1650546427779.8418,106.83256067630217,0.0
1650546427780.124,106.83256067630217,0.0
1650546427814.914,106.83256067630217,0.0
1650546427816.0889,106.83256067630217,0.0
1650546427824.744,106.71615363661127,0.0
1650546427824.896,106.7743254292723,0.0
1650546427826.1199,106.71615363661127,0.0
1650546427827.345,106.71615363661127,0.0
1650546427857.317,106.65804519466376,0.7326007326007326
1650546427857.5662,106.71615363661127,0.0
1650546427858.751,106.71615363661127,0.0
1650546427878.668,106.65804519466376,0.0
1650546427879.732,106.6,0.0
1650546427879.845,106.6,0.0
1650546427881.114,106.54201794941528,0.0
1650546427894.898,106.48409893992932,0.0
1650546427896.019,106.42624286878565,0.0
1650546427896.191,106.36844963345098,0.0
1650546427931.164,106.42624286878565,0.0
1650546427932.362,106.36844963345098,0.0
1650546427941.031,106.31071913161465,0.0
1650546427941.185,106.25305126118795,0.0
1650546427942.394,106.25305126118795,0.0
1650546427956.661,106.25305126118795,0.0
1650546427982.312,106.1954459203036,0.0
1650546427982.493,106.1954459203036,0.0
1650546427983.626,106.1954459203036,0.0
1650546428004.021,106.1954459203036,0.0
1650546428004.88,106.13790300731509,0.0
1650546428005.086,106.13790300731509,0.0
1650546428006.331,106.13790300731509,0.0
1650546428014.944,106.0804224207961,0.0
1650546428059.8271,105.96564782255882,0.0
1650546428060.0122,106.02300405953991,0.0
1650546428061.134,106.02300405953991,0.0
1650546428062.381,105.96564782255882,0.0
1650546428064.754,105.90835360908353,0.0
1650546428064.872,105.90835360908353,0.0
1650546428066.177,105.90835360908353,0.0
1650546428079.938,105.85112131856255,0.0
1650546428107.496,105.85112131856255,0.0
1650546428108.602,105.90835360908353,0.0
1650546428108.784,105.90835360908353,0.0
1650546428127.423,105.96564782255882,0.0
1650546428128.521,105.90835360908353,0.0
1650546428128.655,105.90835360908353,0.0
1650546428131.134,105.96564782255882,0.0
1650546428166.1938,105.90835360908353,0.0
1650546428167.252,105.90835360908353,0.0
1650546428167.355,105.90835360908353,0.0
1650546428181.218,105.96564782255882,0.0
1650546428182.3782,105.96564782255882,0.0
1650546428183.512,105.90835360908353,0.0
1650546428183.634,105.90835360908353,0.0
1650546428192.389,105.90835360908353,0.0
1650546428217.416,105.96564782255882,0.0
1650546428244.869,105.85112131856255,0.0
1650546428245.06,105.90835360908353,0.0
1650546428246.6172,105.90835360908353,0.0
1650546428247.4639,105.90835360908353,0.0
1650546428248.555,105.85112131856255,0.0
1650546428248.7048,105.90835360908353,0.0
1650546428276.1829,105.90835360908353,0.0
1650546428277.507,105.90835360908353,0.0
1650546428302.332,105.85112131856255,0.0
1650546428302.521,105.85112131856255,0.0
1650546428303.647,105.85112131856255,0.0
1650546428309.9028,105.79395085066162,0.0
1650546428311.025,105.79395085066162,0.0
1650546428311.152,105.79395085066162,0.0
1650546428316.149,105.85112131856255,0.0
1650546428346.191,105.85112131856255,0.0
1650546428347.452,105.73684210526315,0.0
1650546428359.8809,105.79395085066162,0.0
1650546428360.148,105.79395085066162,0.0
1650546428361.203,105.79395085066162,0.0
1650546428369.962,105.73684210526315,0.0
1650546428370.196,105.79395085066162,0.0
1650546428378.8582,105.79395085066162,0.0
1650546428408.843,105.79395085066162,0.0
1650546428410.018,105.6797949824656,0.0
1650546428427.34,105.73684210526315,0.0
1650546428427.508,105.73684210526315,0.0
1650546428428.679,105.73684210526315,0.0
1650546428429.8,105.6797949824656,0.0
1650546428429.941,105.6797949824656,0.0
1650546428454.946,105.6228093825829,0.0
1650546428456.1719,105.6797949824656,0.0
1650546428483.708,105.6797949824656,0.0
1650546428484.783,105.6797949824656,0.0
1650546428484.901,105.6797949824656,0.0
1650546428486.244,105.6797949824656,0.0
1650546428528.695,105.6228093825829,0.0
1650546428528.924,105.6228093825829,0.0
1650546428530.07,105.6797949824656,0.0
1650546428541.2231,105.6228093825829,0.0
1650546428542.4312,105.6228093825829,0.0
1650546428543.564,105.56588520614389,0.0
1650546428543.7,105.6228093825829,0.0
1650546428544.917,105.6228093825829,0.0
1650546428558.5798,105.56588520614389,0.0
1650546428558.736,105.6228093825829,0.0
1650546428583.7131,105.6228093825829,0.0
1650546428584.928,105.6228093825829,0.0
1650546428603.82,105.56588520614389,0.0
1650546428604.846,105.56588520614389,0.0
1650546428604.992,105.56588520614389,0.0
1650546428606.173,105.6228093825829,0.0
1650546428619.8462,105.56588520614389,0.0
1650546428620.011,105.56588520614389,0.0
1650546428646.2468,105.56588520614389,0.0
1650546428647.418,105.56588520614389,0.0
1650546428668.59,105.50902235389172,0.0
1650546428668.7642,105.50902235389172,0.0
1650546428669.974,105.56588520614389,0.0
1650546428671.219,105.6228093825829,0.0
1650546428699.853,105.50902235389172,0.0
1650546428700.031,105.56588520614389,0.0
1650546428701.19,105.56588520614389,0.0
1650546428708.78,105.56588520614389,0.0
1650546428709.91,105.45222072678331,0.0
1650546428710.136,105.50902235389172,0.0
1650546428726.228,105.56588520614389,0.0
1650546428732.461,105.50902235389172,0.0
1650546428763.644,105.45222072678331,0.0
1650546428763.8718,105.50902235389172,0.0
1650546428764.974,105.50902235389172,0.0
1650546428782.479,105.50902235389172,0.0
1650546428783.583,105.45222072678331,0.0
1650546428783.737,105.50902235389172,0.0
1650546428784.933,105.45222072678331,0.0
1650546428798.7249,105.50902235389172,0.0
1650546428823.662,105.45222072678331,0.0
1650546428823.8372,105.45222072678331,0.0
1650546428824.983,105.50902235389172,0.0
1650546428847.464,105.50902235389172,0.0
1650546428848.705,105.39548022598869,0.0
1650546428849.9128,105.45222072678331,0.0
1650546428850.2659,105.50902235389172,0.0
1650546428858.824,105.45222072678331,0.0
1650546428889.996,105.39548022598869,0.0
1650546428890.2568,105.45222072678331,0.0
1650546428891.302,105.45222072678331,0.0
1650546428902.476,105.45222072678331,0.0
1650546428903.596,105.39548022598869,0.0
1650546428903.751,105.39548022598869,0.0
1650546428912.499,105.45222072678331,0.0
1650546428941.24,105.39548022598869,0.0
1650546428942.45,105.39548022598869,0.0
1650546428942.6392,105.39548022598869,0.0
1650546428967.5342,105.39548022598869,0.0
1650546428968.721,105.45222072678331,0.0
1650546428969.896,105.33880075289056,0.0
1650546428970.0679,105.33880075289056,0.0
1650546428978.741,105.33880075289056,0.0
1650546429004.997,105.33880075289056,0.0
1650546429006.168,105.39548022598869,0.0
1650546429006.416,105.33880075289056,0.0
1650546429029.98,105.39548022598869,0.0
1650546429031.211,105.39548022598869,0.0
1650546429032.334,105.33880075289056,0.0
1650546429032.469,105.39548022598869,0.0
1650546429033.706,105.33880075289056,0.0
1650546429059.9949,105.28218220908357,0.0
1650546429061.097,105.33880075289056,0.0
1650546429061.25,105.33880075289056,0.0
1650546429081.274,105.39548022598869,0.0
1650546429082.519,105.33880075289056,0.0
1650546429083.732,105.33880075289056,0.0
1650546429098.611,105.33880075289056,0.0
1650546429098.763,105.39548022598869,0.0
1650546429123.748,105.33880075289056,0.0
1650546429124.864,105.33880075289056,0.0
1650546429125.01,105.33880075289056,0.0
1650546429148.7551,105.33880075289056,0.0
1650546429149.967,105.28218220908357,0.0
1650546429151.205,105.33880075289056,0.0
1650546429176.1292,105.33880075289056,0.0
1650546429176.307,105.22562449637388,0.0
1650546429177.4868,105.33880075289056,0.0
1650546429203.633,105.28218220908357,0.0
1650546429203.827,105.33880075289056,0.0
1650546429205.005,105.33880075289056,0.0
1650546429206.2122,105.39548022598869,0.0
1650546429214.992,105.28218220908357,0.0
1650546429239.877,105.28218220908357,0.0
1650546429240.071,105.33880075289056,0.0
1650546429241.222,105.33880075289056,0.0
1650546429263.652,105.33880075289056,0.0
1650546429263.853,105.28218220908357,0.0
1650546429264.963,105.33880075289056,0.0
1650546429266.195,105.33880075289056,0.0
1650546429279.877,105.28218220908357,0.0
1650546429280.06,105.33880075289056,0.0
1650546429304.996,105.33880075289056,0.0
1650546429306.204,105.39548022598869,0.0
1650546429324.914,105.33880075289056,0.0
1650546429325.1191,105.33880075289056,0.0
1650546429326.364,105.28218220908357,0.0
1650546429327.502,105.39548022598869,0.0
1650546429357.46,105.33880075289056,0.0
1650546429357.9568,105.39548022598869,0.0
1650546429358.8518,105.33880075289056,0.0
1650546429385.07,105.39548022598869,0.0
1650546429386.2031,105.33880075289056,0.0
1650546429386.4329,105.33880075289056,0.0
1650546429387.553,105.33880075289056,0.0
1650546429388.7278,105.39548022598869,0.0
1650546429416.218,105.33880075289056,0.0
1650546429416.397,105.39548022598869,0.0
1650546429417.5461,105.39548022598869,0.0
1650546429441.262,105.39548022598869,0.0
1650546429442.401,105.33880075289056,0.0
1650546429442.605,105.33880075289056,0.0
1650546429443.719,105.39548022598869,0.0
1650546429452.502,105.39548022598869,0.0
1650546429483.643,105.33880075289056,0.0
1650546429483.834,105.39548022598869,0.0
1650546429484.961,105.39548022598869,0.0
1650546429505.1,105.45222072678331,0.0
1650546429506.1929,105.39548022598869,0.0
1650546429506.428,105.33880075289056,0.0
1650546429507.538,105.39548022598869,0.0
1650546429516.248,105.39548022598869,0.0
1650546429553.627,105.33880075289056,0.0
1650546429553.782,105.39548022598869,0.0
1650546429554.962,105.45222072678331,0.0
1650546429556.195,105.45222072678331,0.0
1650546429557.352,105.39548022598869,0.0
1650546429557.529,105.39548022598869,0.0
1650546429571.227,105.33880075289056,0.0
1650546429577.5708,105.45222072678331,0.0
1650546429606.133,105.39548022598869,0.0
1650546429606.3298,105.45222072678331,0.0
1650546429607.467,105.45222072678331,0.0
1650546429626.321,105.39548022598869,0.0
1650546429627.422,105.39548022598869,0.0
1650546429627.666,105.39548022598869,16.117216117216117
1650546429628.73,105.45222072678331,131.13553113553112
1650546429658.732,105.45222072678331,285.7142857142857
1650546429659.864,105.39548022598869,450.5494505494505
1650546429660.084,105.39548022598869,608.7912087912088
1650546429685.009,105.45222072678331,755.3113553113552
1650546429686.2422,105.45222072678331,882.051282051282
1650546429692.5508,105.39548022598869,989.010989010989
1650546429692.8489,105.39548022598869,1077.6556776556777
1650546429693.742,105.45222072678331,1148.7179487179487
1650546429722.525,105.45222072678331,1206.5934065934066
1650546429723.611,105.39548022598869,1249.8168498168498
1650546429723.809,105.45222072678331,1279.120879120879
1650546429746.238,105.39548022598869,1293.7728937728937
1650546429747.456,105.45222072678331,1298.9010989010987
1650546429748.558,105.39548022598869,1294.5054945054944
1650546429748.652,105.45222072678331,1283.5164835164835
1650546429755.069,105.45222072678331,1271.062271062271
1650546429781.3079,105.45222072678331,1258.6080586080586
1650546429782.369,105.39548022598869,1249.084249084249
1650546429782.5698,105.45222072678331,1239.5604395604396
1650546429802.489,105.45222072678331,1234.4322344322343
1650546429803.71,105.39548022598869,1235.8974358974358
1650546429804.836,105.45222072678331,1241.7582417582416
1650546429804.975,105.45222072678331,1257.142857142857
1650546429818.9211,105.39548022598869,1279.8534798534797
1650546429851.2249,105.50902235389172,1310.6227106227104
1650546429852.4512,105.45222072678331,1347.985347985348
1650546429867.36,105.45222072678331,1389.0109890109889
1650546429867.543,105.50902235389172,1430.7692307692307
1650546429868.691,105.50902235389172,1472.5274725274724
1650546429869.821,105.45222072678331,1512.087912087912
1650546429869.956,105.50902235389172,1545.7875457875457
1650546429896.2659,105.45222072678331,1576.5567765567764
1650546429897.44,105.50902235389172,1600.0
1650546429921.1162,105.45222072678331,1617.5824175824175
1650546429921.277,105.50902235389172,1624.1758241758241
1650546429922.49,105.50902235389172,1620.5128205128203
1650546429923.7722,105.50902235389172,1608.7912087912086
1650546429932.379,105.45222072678331,1589.0109890109889
1650546429932.55,105.50902235389172,1564.102564102564
1650546429958.886,105.50902235389172,1536.9963369963368
1650546429960.0388,105.50902235389172,1506.227106227106
1650546429984.979,105.50902235389172,1475.4578754578754
1650546429986.084,105.50902235389172,1446.8864468864467
1650546429986.238,105.56588520614389,1421.9780219780218
1650546429987.446,105.56588520614389,1397.8021978021977
1650546429996.1409,105.50902235389172,1375.8241758241757
1650546429996.366,105.56588520614389,1354.5787545787546
1650546430028.77,105.56588520614389,1339.194139194139
1650546430029.9932,105.56588520614389,1327.4725274725274
1650546430043.721,105.56588520614389,1320.8791208791208
1650546430044.8862,105.56588520614389,1316.4835164835165
1650546430045.074,105.56588520614389,1315.7509157509157
1650546430058.769,105.56588520614389,1318.6813186813185
1650546430083.76,105.56588520614389,1320.8791208791208
1650546430083.953,105.6228093825829,1323.8095238095236
1650546430084.989,105.6228093825829,1326.7399267399267
1650546430099.968,105.6228093825829,1330.4029304029302
1650546430101.197,105.50902235389172,1334.7985347985348
1650546430102.335,105.6228093825829,1339.194139194139
1650546430102.489,105.6228093825829,1345.054945054945
1650546430108.717,105.6797949824656,1350.18315018315
1650546430138.611,105.56588520614389,1358.974358974359
1650546430138.814,105.6228093825829,1366.3003663003662
1650546430139.959,105.6797949824656,1370.6959706959706
1650546430164.956,105.6797949824656,1373.6263736263736
1650546430166.07,105.6228093825829,1375.8241758241757
1650546430166.2222,105.6797949824656,1377.2893772893772
1650546430167.4348,105.6797949824656,1378.7545787545787
1650546430168.686,105.6797949824656,1377.2893772893772
1650546430197.415,105.6797949824656,1375.091575091575
1650546430197.7998,105.6797949824656,1369.9633699633698
1650546430198.74,105.6797949824656,1362.6373626373625
1650546430221.202,105.73684210526315,1353.8461538461538
1650546430222.485,105.6228093825829,1345.054945054945
1650546430223.696,105.73684210526315,1335.5311355311355
1650546430223.968,105.73684210526315,1328.937728937729
1650546430237.577,105.79395085066162,1322.3443223443223
1650546430238.593,105.6797949824656,1317.216117216117
1650546430238.7942,105.73684210526315,1309.1575091575091
1650546430266.2139,105.79395085066162,1300.3663003663003
1650546430267.401,105.85112131856255,1293.040293040293
1650546430284.996,105.79395085066162,1285.7142857142856
1650546430286.128,105.85112131856255,1277.6556776556777
1650546430286.316,105.85112131856255,1268.8644688644688
1650546430294.985,105.90835360908353,1260.07326007326
1650546430319.926,105.90835360908353,1251.2820512820513
1650546430320.119,105.90835360908353,1246.8864468864467
1650546430321.32,105.96564782255882,1242.4908424908424
1650546430346.215,105.96564782255882,1242.4908424908424
1650546430347.4841,105.90835360908353,1242.4908424908424
1650546430348.604,105.96564782255882,1241.0256410256409
1650546430348.757,105.96564782255882,1242.4908424908424
1650546430377.6719,106.0804224207961,1246.8864468864467
1650546430377.812,106.02300405953991,1254.212454212454
1650546430377.849,106.02300405953991,1260.8058608058607
1650546430402.469,106.02300405953991,1267.3992673992673
1650546430403.6611,105.96564782255882,1273.260073260073
1650546430406.031,105.96564782255882,1275.4578754578754
1650546430406.145,105.96564782255882,1278.3882783882782
1650546430432.447,106.02300405953991,1279.8534798534797
1650546430433.6729,105.96564782255882,1280.5860805860805
1650546430462.3289,105.96564782255882,1279.120879120879
1650546430462.524,105.96564782255882,1280.5860805860805
1650546430463.685,105.96564782255882,1282.051282051282
1650546430466.166,106.02300405953991,1284.9816849816848
1650546430467.299,105.96564782255882,1289.3772893772893
1650546430467.4822,105.90835360908353,1292.3076923076922
1650546430476.212,105.96564782255882,1294.5054945054944
1650546430501.214,105.96564782255882,1294.5054945054944
1650546430502.355,105.90835360908353,1293.040293040293
1650546430502.5452,105.96564782255882,1290.10989010989
1650546430522.447,105.96564782255882,1285.7142857142856
1650546430523.673,105.90835360908353,1281.3186813186812
1650546430524.94,105.90835360908353,1277.6556776556777
1650546430538.584,105.90835360908353,1271.062271062271
1650546430538.743,105.85112131856255,1265.2014652014652
1650546430563.674,105.90835360908353,1258.6080586080586
1650546430564.81,105.90835360908353,1254.212454212454
1650546430564.942,105.90835360908353,1249.084249084249
1650546430584.9421,105.96564782255882,1246.153846153846
1650546430586.17,105.90835360908353,1243.956043956044
1650546430587.405,105.85112131856255,1246.8864468864467
1650546430613.6018,105.90835360908353,1248.3516483516482
1650546430613.781,105.85112131856255,1252.014652014652
1650546430614.906,105.96564782255882,1254.9450549450548
1650546430642.3499,105.90835360908353,1258.6080586080586
1650546430642.4912,105.96564782255882,1264.4688644688645
1650546430644.933,105.90835360908353,1268.8644688644688
1650546430647.3948,105.96564782255882,1269.5970695970695
1650546430648.642,105.90835360908353,1271.7948717948716
1650546430673.6182,105.90835360908353,1273.9926739926739
1650546430673.788,105.90835360908353,1274.7252747252746
1650546430698.7441,105.96564782255882,1273.9926739926739
1650546430699.817,105.90835360908353,1273.260073260073
1650546430699.943,105.90835360908353,1268.8644688644688
1650546430706.187,105.96564782255882,1265.9340659340658
1650546430707.427,105.96564782255882,1264.4688644688645
1650546430716.165,105.90835360908353,1264.4688644688645
1650546430741.067,105.90835360908353,1262.2710622710622
1650546430741.204,105.96564782255882,1261.5384615384614
1650546430742.421,105.96564782255882,1260.8058608058607
1650546430764.813,105.96564782255882,1262.2710622710622
1650546430764.963,105.96564782255882,1263.7362637362637
1650546430766.1792,105.90835360908353,1265.2014652014652
1650546430767.562,106.02300405953991,1265.2014652014652
1650546430776.0688,105.90835360908353,1264.4688644688645
1650546430776.244,105.96564782255882,1263.003663003663
1650546430801.1292,106.02300405953991,1263.003663003663
1650546430802.474,106.02300405953991,1264.4688644688645
1650546430824.809,106.02300405953991,1268.131868131868
1650546430825.003,105.96564782255882,1271.7948717948716
1650546430826.179,105.96564782255882,1276.923076923077
1650546430827.395,106.02300405953991,1280.5860805860805
1650546430862.3801,105.96564782255882,1287.179487179487
1650546430862.542,106.02300405953991,1296.7032967032967
1650546430863.6848,106.02300405953991,1309.89010989011
1650546430879.91,106.0804224207961,1326.7399267399267
1650546430881.012,105.96564782255882,1349.4505494505493
1650546430881.1619,106.0804224207961,1376.5567765567764
1650546430882.4128,106.0804224207961,1408.7912087912086
1650546430896.158,106.0804224207961,1443.2234432234432
1650546430922.322,106.02300405953991,1479.120879120879
1650546430922.435,106.13790300731509,1513.5531135531135
1650546430923.689,106.13790300731509,1545.054945054945
1650546430944.9019,106.0804224207961,1572.8937728937728
1650546430946.09,106.0804224207961,1594.8717948717947
1650546430946.282,106.0804224207961,1609.5238095238094
1650546430947.4539,106.13790300731509,1616.8498168498168
1650546430948.6748,106.13790300731509,1619.047619047619
1650546430977.592,106.13790300731509,1615.3846153846152
1650546430978.527,106.13790300731509,1606.5934065934066
1650546430978.6838,106.13790300731509,1593.4065934065934
1650546431004.923,106.13790300731509,1575.8241758241757
1650546431006.022,106.13790300731509,1557.5091575091574
1650546431006.176,106.1954459203036,1536.263736263736
1650546431009.1409,106.1954459203036,1515.7509157509157
1650546431016.268,106.25305126118795,1495.2380952380952
1650546431047.3398,106.1954459203036,1477.6556776556777
1650546431047.597,106.1954459203036,1463.003663003663
1650546431048.6392,106.25305126118795,1452.014652014652
1650546431067.396,106.25305126118795,1443.2234432234432
1650546431068.489,106.1954459203036,1435.8974358974358
1650546431068.619,106.1954459203036,1429.3040293040292
1650546431069.8918,106.25305126118795,1422.7106227106226
1650546431078.735,106.25305126118795,1413.1868131868132
1650546431104.761,106.25305126118795,1403.6630036630036
1650546431104.9148,106.25305126118795,1391.9413919413919
1650546431106.148,106.31071913161465,1380.2197802197802
1650546431125.0059,106.31071913161465,1369.9633699633698
1650546431126.168,106.25305126118795,1362.6373626373625
1650546431126.5571,106.31071913161465,1354.5787545787546
1650546431127.424,106.31071913161465,1352.3809523809523
1650546431158.642,106.25305126118795,1353.113553113553
1650546431159.844,106.31071913161465,1356.0439560439559
1650546431182.304,106.31071913161465,1359.7069597069597
1650546431182.509,106.31071913161465,1366.3003663003662
1650546431183.571,106.31071913161465,1375.8241758241757
1650546431184.706,106.31071913161465,1385.3479853479853
1650546431184.802,106.31071913161465,1393.4065934065934
1650546431193.682,106.36844963345098,1398.5347985347985
1650546431217.3901,106.36844963345098,1401.4652014652013
1650546431218.58,106.36844963345098,1403.6630036630036
1650546431249.592,106.36844963345098,1402.197802197802
1650546431249.801,106.42624286878565,1401.4652014652013
1650546431249.831,106.31071913161465,1399.2673992673992
1650546431249.856,106.36844963345098,1394.8717948717947
1650546431249.882,106.36844963345098,1389.7435897435896
1650546431271.16,106.42624286878565,1384.6153846153845
1650546431272.328,106.42624286878565,1380.2197802197802
1650546431297.2642,106.36844963345098,1376.5567765567764
1650546431297.4,106.36844963345098,1372.8937728937728
1650546431298.646,106.42624286878565,1367.7655677655678
1650546431306.109,106.48409893992932,1362.6373626373625
1650546431312.326,106.42624286878565,1358.974358974359
1650546431312.5342,106.42624286878565,1353.8461538461538
1650546431342.353,106.48409893992932,1348.7179487179487
1650546431343.6501,106.54201794941528,1343.5897435897434
1650546431367.234,106.42624286878565,1335.5311355311355
1650546431367.394,106.48409893992932,1327.4725274725274
1650546431368.602,106.48409893992932,1320.8791208791208
1650546431369.873,106.42624286878565,1313.5531135531135
1650546431371.002,106.42624286878565,1308.4249084249084
1650546431371.161,106.48409893992932,1301.8315018315018
1650546431404.9102,106.48409893992932,1295.970695970696
1650546431423.671,106.48409893992932,1290.8424908424909
1650546431424.9219,106.48409893992932,1288.6446886446886
1650546431426.0261,106.48409893992932,1284.9816849816848
1650546431426.282,106.54201794941528,1279.8534798534797
1650546431427.355,106.48409893992932,1275.4578754578754
1650546431428.473,106.48409893992932,1271.062271062271
1650546431428.6758,106.54201794941528,1269.5970695970695
1650546431457.368,106.54201794941528,1269.5970695970695
1650546431458.7568,106.54201794941528,1269.5970695970695
1650546431485.596,106.54201794941528,1271.7948717948716
1650546431485.904,106.6,1275.4578754578754
1650546431485.96,106.6,1279.120879120879
1650546431487.4138,106.6,1282.7838827838827
1650546431496.0889,106.54201794941528,1287.179487179487
1650546431496.366,106.54201794941528,1290.8424908424909
1650546431524.821,106.6,1295.2380952380952
1650546431528.877,106.6,1298.168498168498
1650546431544.768,106.6,1302.5641025641025
1650546431544.9778,106.54201794941528,1306.227106227106
1650546431546.0452,106.65804519466376,1307.6923076923076
1650546431547.256,106.65804519466376,1304.0293040293038
1650546431555.957,106.6,1302.5641025641025
1650546431556.135,106.6,1302.5641025641025
1650546431586.191,106.65804519466376,1304.0293040293038
1650546431587.331,106.65804519466376,1304.0293040293038
1650546431608.666,106.65804519466376,1303.2967032967033
1650546431609.66,106.65804519466376,1304.0293040293038
1650546431609.7961,106.65804519466376,1307.6923076923076
1650546431611.1199,106.71615363661127,1309.1575091575091
1650546431636.2568,106.65804519466376,1309.89010989011
1650546431636.438,106.65804519466376,1310.6227106227104
1650546431639.6028,106.71615363661127,1308.4249084249084
1650546431663.585,106.65804519466376,1304.7619047619046
1650546431665.073,106.65804519466376,1301.098901098901
1650546431665.8872,106.65804519466376,1295.970695970696
1650546431666.005,106.71615363661127,1290.8424908424909
1650546431668.605,106.7743254292723,1289.3772893772893
1650546431695.943,106.65804519466376,1290.10989010989
1650546431696.082,106.65804519466376,1293.040293040293
1650546431721.0168,106.71615363661127,1293.7728937728937
1650546431722.2222,106.7743254292723,1295.2380952380952
1650546431723.53,106.71615363661127,1296.7032967032967
1650546431724.772,106.7743254292723,1299.6336996336995
1650546431724.9502,106.7743254292723,1302.5641025641025
1650546431738.524,106.7743254292723,1304.0293040293038
1650546431739.686,106.7743254292723,1303.2967032967033
1650546431739.829,106.7743254292723,1301.098901098901
1650546431766.0178,106.7743254292723,1299.6336996336995
1650546431767.3162,106.7743254292723,1297.4358974358975
1650546431787.353,106.71615363661127,1295.2380952380952
1650546431788.376,106.7743254292723,1293.040293040293
1650546431788.485,106.83256067630217,1291.5750915750914
1650546431797.253,106.83256067630217,1291.5750915750914
1650546431823.53,106.7743254292723,1293.040293040293
1650546431823.735,106.83256067630217,1294.5054945054944
1650546431824.786,106.83256067630217,1295.2380952380952
1650546431844.829,106.83256067630217,1295.2380952380952
1650546431846.021,106.7743254292723,1298.9010989010987
1650546431847.173,106.83256067630217,1301.8315018315018
1650546431847.3562,106.83256067630217,1305.4945054945053
1650546431872.332,106.89085948158255,1307.6923076923076
1650546431873.4119,106.83256067630217,1310.6227106227104
1650546431873.628,106.89085948158255,1310.6227106227104
1650546431898.5579,106.89085948158255,1309.1575091575091
1650546431899.8462,106.83256067630217,1307.6923076923076
1650546431909.861,106.83256067630217,1306.227106227106
1650546431910.989,106.89085948158255,1304.0293040293038
1650546431911.142,106.83256067630217,1304.7619047619046
1650546431937.251,106.89085948158255,1307.6923076923076
1650546431939.1292,106.83256067630217,1315.7509157509157
1650546431939.2852,106.94922194922195,1329.6703296703297
1650546431963.501,106.94922194922195,1350.9157509157508
1650546431964.733,106.89085948158255,1381.6849816849815
1650546431966.104,106.89085948158255,1413.9194139194137
1650546431974.683,106.94922194922195,1449.084249084249
1650546431974.866,106.94922194922195,1484.2490842490843
1650546432001.025,106.94922194922195,1517.9487179487178
1650546432002.3142,106.94922194922195,1553.113553113553
1650546432002.443,106.94922194922195,1585.3479853479853
1650546432027.2988,106.94922194922195,1613.186813186813
1650546432028.4531,107.00764818355641,1635.164835164835
1650546432029.854,106.94922194922195,1649.8168498168498
1650546432034.641,106.94922194922195,1654.212454212454
1650546432034.862,107.00764818355641,1650.5494505494505
1650546432068.624,107.00764818355641,1638.095238095238
1650546432069.61,106.94922194922195,1619.047619047619
1650546432069.825,107.00764818355641,1592.6739926739926
1650546432083.551,107.00764818355641,1563.3699633699632
1650546432084.736,107.06613828915005,1531.8681318681317
1650546432086.0369,107.00764818355641,1499.6336996336995
1650546432099.617,107.00764818355641,1471.062271062271
1650546432099.772,107.00764818355641,1443.956043956044
1650546432127.299,107.00764818355641,1419.047619047619
1650546432128.4011,107.00764818355641,1400.7326007326005
1650546432128.676,107.06613828915005,1386.8131868131868
1650546432143.517,107.06613828915005,1377.2893772893772
1650546432144.711,107.06613828915005,1369.9633699633698
1650546432146.034,107.06613828915005,1367.7655677655678
1650546432159.573,107.06613828915005,1363.3699633699632
1650546432159.711,107.06613828915005,1361.904761904762
1650546432188.951,107.12469237079574,1358.974358974359
1650546432189.533,107.06613828915005,1356.7765567765566
1650546432189.616,107.06613828915005,1352.3809523809523
1650546432204.737,107.12469237079574,1349.4505494505493
1650546432211.115,107.12469237079574,1350.18315018315
1650546432238.335,107.06613828915005,1352.3809523809523
1650546432238.513,107.18331053351574,1355.3113553113553
1650546432241.585,107.12469237079574,1360.4395604395604
1650546432265.1912,107.12469237079574,1365.5677655677655
1650546432265.7622,107.12469237079574,1375.091575091575
1650546432265.831,107.12469237079574,1382.4175824175823
1650546432267.187,107.12469237079574,1388.278388278388
1650546432268.417,107.18331053351574,1393.4065934065934
1650546432277.138,107.12469237079574,1398.5347985347985
1650546432277.267,107.12469237079574,1402.197802197802
1650546432303.4202,107.18331053351574,1407.3260073260071
1650546432304.7222,107.24199288256229,1412.4542124542124
1650546432330.926,107.12469237079574,1414.6520146520145
1650546432331.4978,107.18331053351574,1413.9194139194137
1650546432332.26,107.18331053351574,1415.3846153846152
1650546432333.386,107.24199288256229,1412.4542124542124
1650546432334.6191,107.18331053351574,1408.058608058608
1650546432364.592,107.18331053351574,1400.7326007326005
1650546432364.772,107.24199288256229,1391.9413919413919
1650546432365.904,107.24199288256229,1384.6153846153845
1650546432382.031,107.18331053351574,1377.2893772893772
1650546432382.152,107.24199288256229,1370.6959706959706
1650546432383.486,107.24199288256229,1363.3699633699632
1650546432389.791,107.24199288256229,1357.5091575091574
1650546432414.593,107.18331053351574,1352.3809523809523
1650546432414.71,107.24199288256229,1345.7875457875457
1650546432417.191,107.24199288256229,1339.9267399267399
1650546432443.451,107.30073952341824,1334.065934065934
1650546432448.346,107.24199288256229,1328.937728937729
1650546432448.569,107.30073952341824,1324.5421245421244
1650546432449.919,107.30073952341824,1320.14652014652
1650546432450.922,107.30073952341824,1315.018315018315
1650546432478.467,107.30073952341824,1314.2857142857142
1650546432479.5388,107.30073952341824,1312.8205128205127
1650546432479.6938,107.35955056179776,1312.8205128205127
1650546432502.317,107.30073952341824,1312.8205128205127
1650546432503.292,107.30073952341824,1313.5531135531135
1650546432503.487,107.30073952341824,1315.7509157509157
1650546432504.689,107.30073952341824,1316.4835164835165
1650546432539.737,107.35955056179776,1317.216117216117
1650546432540.7551,107.30073952341824,1317.9487179487178
1650546432540.893,107.30073952341824,1318.6813186813185
1650546432560.913,107.35955056179776,1320.14652014652
1650546432562.116,107.35955056179776,1321.6117216117216
1650546432563.293,107.30073952341824,1323.076923076923
1650546432563.493,107.35955056179776,1323.8095238095236
1650546432572.279,107.35955056179776,1323.8095238095236
1650546432599.677,107.30073952341824,1326.007326007326
1650546432600.887,107.35955056179776,1325.2747252747251
1650546432628.33,107.41842610364684,1325.2747252747251
1650546432628.571,107.41842610364684,1323.8095238095236
1650546432629.679,107.41842610364684,1323.076923076923
1650546432633.303,107.35955056179776,1321.6117216117216
1650546432633.626,107.41842610364684,1317.9487179487178
1650546432634.616,107.41842610364684,1314.2857142857142
1650546432639.606,107.41842610364684,1311.3553113553112
1650546432664.469,107.35955056179776,1309.1575091575091
1650546432664.611,107.41842610364684,1307.6923076923076
1650546432665.8982,107.41842610364684,1307.6923076923076
1650546432685.959,107.41842610364684,1310.6227106227104
1650546432686.96,107.35955056179776,1315.7509157509157
1650546432687.1099,107.47736625514403,1321.6117216117216
1650546432688.3699,107.41842610364684,1326.007326007326
1650546432718.401,107.35955056179776,1333.3333333333333
1650546432719.572,107.41842610364684,1338.4615384615383
1650546432740.793,107.47736625514403,1340.6593406593406
1650546432740.952,107.47736625514403,1339.9267399267399
1650546432742.097,107.35955056179776,1338.4615384615383
1650546432743.186,107.41842610364684,1335.5311355311355
1650546432743.305,107.47736625514403,1333.3333333333333
1650546432757.117,107.47736625514403,1331.8681318681317
1650546432782.13,107.47736625514403,1328.2051282051282
1650546432783.282,107.47736625514403,1324.5421245421244
1650546432809.633,107.53637112270108,1320.14652014652
1650546432809.929,107.47736625514403,1315.018315018315
1650546432810.7979,107.47736625514403,1309.1575091575091
1650546432811.9668,107.41842610364684,1304.7619047619046
1650546432812.133,107.53637112270108,1301.098901098901
1650546432818.309,107.53637112270108,1298.168498168498
1650546432845.9521,107.41842610364684,1297.4358974358975
1650546432862.1062,107.47736625514403,1299.6336996336995
1650546432866.974,107.47736625514403,1304.0293040293038
1650546432867.1428,107.47736625514403,1307.6923076923076
1650546432872.124,107.53637112270108,1313.5531135531135
1650546432908.586,107.53637112270108,1321.6117216117216
1650546432908.732,107.53637112270108,1327.4725274725274
1650546432908.759,107.53637112270108,1331.8681318681317
1650546432919.589,107.53637112270108,1334.065934065934
1650546432923.271,107.47736625514403,1336.9963369963368
1650546432924.47,107.53637112270108,1336.9963369963368
1650546432924.681,107.53637112270108,1336.263736263736
1650546432925.812,107.47736625514403,1334.065934065934
1650546432934.532,107.47736625514403,1333.3333333333333
1650546432934.711,107.53637112270108,1336.263736263736
1650546432962.172,107.53637112270108,1342.1245421245421
1650546432963.458,107.59544081296347,1348.7179487179487
1650546432983.4038,107.53637112270108,1359.7069597069597
1650546432984.73,107.59544081296347,1372.8937728937728
1650546432984.956,107.59544081296347,1391.9413919413919
1650546432985.888,107.59544081296347,1416.8498168498168
1650546432994.4229,107.53637112270108,1446.153846153846
1650546432994.594,107.53637112270108,1479.8534798534797
1650546433022.069,107.59544081296347,1517.216117216117
1650546433023.278,107.59544081296347,1555.311355311355
1650546433046.989,107.53637112270108,1592.6739926739926
1650546433047.383,107.59544081296347,1622.7106227106226
1650546433048.262,107.53637112270108,1646.153846153846
1650546433049.526,107.59544081296347,1658.6080586080584
1650546433058.291,107.53637112270108,1665.9340659340658
1650546433058.614,107.59544081296347,1664.4688644688645
1650546433095.792,107.59544081296347,1655.6776556776556
1650546433097.018,107.59544081296347,1636.6300366300366
1650546433098.655,107.59544081296347,1614.6520146520145
1650546433099.3818,107.59544081296347,1589.7435897435896
1650546433099.5269,107.65457543281121,1563.3699633699632
1650546433113.238,107.59544081296347,1536.9963369963368
1650546433114.438,107.59544081296347,1511.3553113553112
1650546433114.6208,107.59544081296347,1487.179487179487
1650546433140.75,107.59544081296347,1465.9340659340658
1650546433142.057,107.59544081296347,1446.8864468864467
1650546433165.76,107.59544081296347,1432.9670329670328
1650546433166.855,107.59544081296347,1421.9780219780218
1650546433166.9978,107.65457543281121,1411.7216117216117
1650546433173.34,107.59544081296347,1403.6630036630036
1650546433203.4531,107.59544081296347,1397.8021978021977
1650546433203.6282,107.59544081296347,1394.139194139194
1650546433204.4739,107.65457543281121,1391.9413919413919
1650546433222.127,107.71377508935937,1389.0109890109889
1650546433223.249,107.59544081296347,1385.3479853479853
1650546433224.388,107.65457543281121,1383.150183150183
1650546433224.583,107.71377508935937,1381.6849816849815
1650546433233.186,107.65457543281121,1380.2197802197802
1650546433259.46,107.65457543281121,1380.2197802197802
1650546433259.7449,107.59544081296347,1383.150183150183
1650546433285.037,107.71377508935937,1388.278388278388
1650546433285.739,107.65457543281121,1394.8717948717947
1650546433290.612,107.59544081296347,1401.4652014652013
1650546433290.906,107.65457543281121,1406.5934065934066
1650546433292.006,107.71377508935937,1413.1868131868132
1650546433293.268,107.65457543281121,1419.047619047619
1650546433320.701,107.59544081296347,1424.1758241758241
1650546433320.934,107.65457543281121,1425.6410256410256
1650546433322.023,107.65457543281121,1427.106227106227
1650546433348.294,107.71377508935937,1427.106227106227
1650546433349.52,107.65457543281121,1427.8388278388277
1650546433350.565,107.71377508935937,1429.3040293040292
1650546433350.7039,107.65457543281121,1427.8388278388277
1650546433359.54,107.71377508935937,1426.3736263736262
1650546433388.149,107.65457543281121,1422.7106227106226
1650546433388.395,107.65457543281121,1416.8498168498168
1650546433389.503,107.71377508935937,1408.7912087912086
1650546433408.227,107.71377508935937,1400.7326007326005
1650546433409.3162,107.65457543281121,1389.0109890109889
1650546433409.51,107.71377508935937,1378.021978021978
1650546433410.7202,107.71377508935937,1367.032967032967
1650546433439.446,107.71377508935937,1356.7765567765566
1650546433440.5999,107.71377508935937,1345.7875457875457
1650546433440.8171,107.71377508935937,1334.7985347985348
1650546433463.171,107.71377508935937,1326.007326007326
1650546433464.436,107.77303988995874,1318.6813186813185
1650546433465.7031,107.71377508935937,1316.4835164835165
1650546433475.61,107.71377508935937,1315.018315018315
1650546433475.7979,107.77303988995874,1316.4835164835165
1650546433500.716,107.77303988995874,1315.7509157509157
1650546433501.783,107.71377508935937,1316.4835164835165
1650546433501.917,107.77303988995874,1317.216117216117
1650546433525.763,107.77303988995874,1315.7509157509157
1650546433526.891,107.77303988995874,1314.2857142857142
1650546433528.1511,107.65457543281121,1312.087912087912
1650546433536.908,107.71377508935937,1310.6227106227104
1650546433537.17,107.77303988995874,1307.6923076923076
1650546433571.912,107.71377508935937,1307.6923076923076
1650546433573.004,107.65457543281121,1304.0293040293038
1650546433573.312,107.77303988995874,1298.168498168498
1650546433584.387,107.77303988995874,1298.9010989010987
1650546433585.679,107.77303988995874,1301.8315018315018
1650546433594.4778,107.71377508935937,1306.227106227106
1650546433620.6018,107.71377508935937,1309.1575091575091
1650546433620.86,107.71377508935937,1309.89010989011
1650546433621.949,107.77303988995874,1309.89010989011
1650546433646.796,107.77303988995874,1311.3553113553112
1650546433646.936,107.77303988995874,1311.3553113553112
1650546433648.415,107.77303988995874,1309.89010989011
1650546433649.345,107.77303988995874,1310.6227106227104
1650546433650.4878,107.77303988995874,1313.5531135531135
1650546433650.625,107.77303988995874,1315.7509157509157
1650546433684.3591,107.71377508935937,1319.4139194139193
1650546433685.581,107.77303988995874,1320.14652014652
1650546433702.992,107.77303988995874,1320.14652014652
1650546433703.1628,107.83236994219654,1318.6813186813185
1650546433704.37,107.77303988995874,1317.9487179487178
1650546433705.669,107.77303988995874,1317.216117216117
1650546433714.288,107.71377508935937,1319.4139194139193
1650546433714.526,107.77303988995874,1318.6813186813185
1650546433743.094,107.83236994219654,1317.216117216117
1650546433746.6272,107.77303988995874,1315.018315018315
1650546433765.465,107.77303988995874,1313.5531135531135
1650546433765.665,107.83236994219654,1313.5531135531135
1650546433766.8828,107.83236994219654,1313.5531135531135
1650546433768.097,107.83236994219654,1314.2857142857142
1650546433778.1729,107.77303988995874,1315.7509157509157
1650546433804.208,107.77303988995874,1317.216117216117
1650546433804.3672,107.77303988995874,1317.9487179487178
1650546433805.612,107.83236994219654,1317.9487179487178
1650546433824.167,107.77303988995874,1317.9487179487178
1650546433824.292,107.83236994219654,1317.216117216117
1650546433825.5469,107.77303988995874,1318.6813186813185
1650546433826.865,107.83236994219654,1317.216117216117
1650546433851.78,107.77303988995874,1316.4835164835165
1650546433852.066,107.77303988995874,1316.4835164835165
1650546433853.031,107.77303988995874,1314.2857142857142
1650546433884.292,107.77303988995874,1312.087912087912
1650546433885.477,107.71377508935937,1311.3553113553112
1650546433885.609,107.77303988995874,1312.8205128205127
1650546433887.63,107.77303988995874,1315.018315018315
1650546433888.023,107.77303988995874,1319.4139194139193
1650546433914.3901,107.71377508935937,1323.8095238095236
1650546433915.526,107.77303988995874,1326.7399267399267
1650546433915.8472,107.77303988995874,1327.4725274725274
1650546433940.708,107.83236994219654,1326.7399267399267
1650546433941.626,107.77303988995874,1326.7399267399267
1650546433941.736,107.77303988995874,1326.007326007326
1650546433949.296,107.77303988995874,1327.4725274725274
1650546433950.584,107.77303988995874,1325.2747252747251
1650546433981.759,107.77303988995874,1323.076923076923
1650546433981.995,107.77303988995874,1318.6813186813185
1650546433983.0452,107.77303988995874,1318.6813186813185
1650546434006.8171,107.83236994219654,1321.6117216117216
1650546434007.831,107.77303988995874,1330.4029304029302
1650546434007.9229,107.77303988995874,1344.3223443223442
1650546434009.222,107.77303988995874,1364.102564102564
1650546434035.5571,107.77303988995874,1389.7435897435896
1650546434036.771,107.77303988995874,1421.245421245421
1650546434064.127,107.77303988995874,1459.3406593406592
1650546434064.301,107.83236994219654,1501.098901098901
1650546434065.47,107.77303988995874,1541.3919413919414
1650546434066.648,107.77303988995874,1580.2197802197802
1650546434066.8062,107.83236994219654,1615.3846153846152
1650546434067.982,107.83236994219654,1645.4212454212452
1650546434079.236,107.77303988995874,1670.3296703296703
1650546434105.407,107.77303988995874,1685.7142857142856
1650546434105.725,107.83236994219654,1691.5750915750914
1650546434106.7021,107.77303988995874,1689.3772893772893
1650546434121.734,107.83236994219654,1680.5860805860805
1650546434122.802,107.77303988995874,1663.7362637362637
1650546434122.959,107.83236994219654,1639.5604395604394
1650546434128.13,107.83236994219654,1611.7216117216117
1650546434155.487,107.83236994219654,1583.150183150183
1650546434156.7148,107.71377508935937,1556.0439560439559
1650546434184.078,107.83236994219654,1528.2051282051282
1650546434184.206,107.77303988995874,1502.5641025641025
1650546434185.417,107.71377508935937,1478.3882783882782
1650546434186.5288,107.77303988995874,1455.6776556776556
1650546434186.6301,107.83236994219654,1434.4322344322343
1650546434187.881,107.83236994219654,1416.8498168498168
1650546434217.998,107.77303988995874,1402.197802197802
1650546434219.2449,107.77303988995874,1390.4761904761904
1650546434246.6829,107.891765353897,1383.150183150183
1650546434247.001,107.83236994219654,1379.4871794871794
1650546434247.931,107.77303988995874,1378.021978021978
1650546434249.1091,107.77303988995874,1376.5567765567764
1650546434249.3032,107.83236994219654,1378.021978021978
1650546434250.59,107.83236994219654,1379.4871794871794
1650546434275.41,107.77303988995874,1383.150183150183
1650546434276.746,107.77303988995874,1384.6153846153845
1650546434302.95,107.83236994219654,1384.6153846153845
1650546434303.25,107.83236994219654,1383.8827838827838
1650546434304.2458,107.83236994219654,1384.6153846153845
1650546434312.935,107.77303988995874,1389.0109890109889
1650546434313.1199,107.891765353897,1393.4065934065934
1650546434314.179,107.83236994219654,1401.4652014652013
1650546434340.471,107.83236994219654,1409.5238095238094
1650546434345.247,107.83236994219654,1418.3150183150183
1650546434366.513,107.891765353897,1425.6410256410256
1650546434366.663,107.83236994219654,1432.9670329670328
1650546434367.839,107.891765353897,1440.2930402930401
1650546434368.998,107.83236994219654,1443.2234432234432
1650546434369.159,107.83236994219654,1445.4212454212454
1650546434401.762,107.83236994219654,1441.7582417582416
1650546434425.3691,107.891765353897,1437.3626373626373
1650546434426.676,107.83236994219654,1430.7692307692307
1650546434427.761,107.891765353897,1423.4432234432234
1650546434427.915,107.891765353897,1416.117216117216
1650546434429.136,107.83236994219654,1407.3260073260071
1650546434430.243,107.83236994219654,1399.2673992673992
1650546434430.393,107.891765353897,1389.7435897435896
1650546434457.856,107.83236994219654,1383.8827838827838
1650546434459.1091,107.83236994219654,1377.2893772893772
1650546434484.16,107.83236994219654,1370.6959706959706
1650546434485.1838,107.891765353897,1361.904761904762
1650546434485.314,107.83236994219654,1354.5787545787546
1650546434486.6372,107.891765353897,1348.7179487179487
1650546434495.2432,107.83236994219654,1344.3223443223442
1650546434495.375,107.83236994219654,1341.3919413919414
1650546434520.3271,107.83236994219654,1339.9267399267399
1650546434521.583,107.891765353897,1339.9267399267399
1650546434542.8628,107.83236994219654,1339.9267399267399
1650546434544.055,107.891765353897,1339.194139194139
1650546434544.235,107.83236994219654,1338.4615384615383
1650546434545.335,107.891765353897,1336.9963369963368
1650546434558.9858,107.83236994219654,1334.7985347985348
1650546434559.1519,107.83236994219654,1331.8681318681317
1650546434590.302,107.891765353897,1330.4029304029302
1650546434591.6108,107.891765353897,1327.4725274725274
1650546434605.28,107.83236994219654,1326.7399267399267
1650546434605.563,107.891765353897,1326.7399267399267
1650546434606.6648,107.83236994219654,1326.7399267399267
1650546434607.769,107.891765353897,1327.4725274725274
1650546434633.949,107.83236994219654,1328.937728937729
1650546434634.1692,107.83236994219654,1330.4029304029302
1650546434635.309,107.891765353897,1331.8681318681317
1650546434661.685,107.891765353897,1331.8681318681317
1650546434670.626,107.83236994219654,1329.6703296703297
1650546434670.779,107.891765353897,1328.937728937729
1650546434671.529,107.891765353897,1329.6703296703297
1650546434674.0242,107.891765353897,1330.4029304029302
1650546434704.03,107.891765353897,1329.6703296703297
1650546434704.3591,107.891765353897,1328.2051282051282
1650546434705.29,107.891765353897,1327.4725274725274
1650546434724.153,107.95122623312207,1325.2747252747251
1650546434725.2668,107.83236994219654,1322.3443223443223
1650546434726.458,107.891765353897,1318.6813186813185
1650546434726.657,107.891765353897,1314.2857142857142
1650546434735.228,107.891765353897,1312.8205128205127
1650546434761.406,107.891765353897,1312.087912087912
1650546434761.7131,107.891765353897,1311.3553113553112
1650546434762.787,107.891765353897,1312.087912087912
1650546434786.522,107.891765353897,1312.8205128205127
1650546434787.561,107.83236994219654,1314.2857142857142
1650546434787.639,107.83236994219654,1315.7509157509157
1650546434789.0178,107.891765353897,1320.14652014652
1650546434820.328,107.891765353897,1323.076923076923
1650546434821.407,107.891765353897,1326.7399267399267
1650546434821.7212,107.891765353897,1331.135531135531
1650546434842.987,107.95122623312207,1333.3333333333333
1650546434844.303,107.95122623312207,1335.5311355311355
1650546434845.254,107.891765353897,1336.263736263736
1650546434845.4412,107.891765353897,1333.3333333333333
1650546434847.117,107.891765353897,1328.2051282051282
1650546434871.4932,107.83236994219654,1326.7399267399267
1650546434872.591,107.83236994219654,1323.076923076923
1650546434872.735,107.891765353897,1319.4139194139193
1650546434897.747,107.891765353897,1315.018315018315
1650546434898.9639,107.891765353897,1312.8205128205127
1650546434911.536,107.83236994219654,1312.8205128205127
1650546434912.558,107.891765353897,1309.89010989011
1650546434912.7148,107.83236994219654,1309.89010989011
1650546434937.774,107.95122623312207,1309.89010989011
1650546434938.832,107.891765353897,1310.6227106227104
1650546434939.02,107.891765353897,1312.087912087912
1650546434965.1611,107.891765353897,1313.5531135531135
1650546434966.531,107.95122623312207,1313.5531135531135
1650546434967.698,107.83236994219654,1312.8205128205127
1650546434968.838,107.891765353897,1312.8205128205127
1650546434969.0198,107.95122623312207,1312.087912087912
1650546435002.7102,107.83236994219654,1311.3553113553112
1650546435003.8481,107.891765353897,1310.6227106227104
1650546435004.022,107.891765353897,1313.5531135531135
1650546435022.735,107.891765353897,1316.4835164835165
1650546435023.8682,107.891765353897,1319.4139194139193
1650546435025.013,107.83236994219654,1324.5421245421244
1650546435025.0908,107.891765353897,1332.6007326007325
1650546435051.518,107.891765353897,1344.3223443223442
1650546435052.633,107.95122623312207,1363.3699633699632
1650546435078.1199,107.83236994219654,1388.278388278388
1650546435078.314,107.95122623312207,1417.5824175824175
1650546435078.867,107.891765353897,1452.014652014652
1650546435087.6292,107.891765353897,1490.8424908424906
1650546435088.852,107.83236994219654,1532.6007326007325
1650546435097.6702,107.891765353897,1574.3589743589744
1650546435098.1208,107.891765353897,1612.4542124542124
1650546435125.144,107.95122623312207,1646.153846153846
1650546435126.372,107.891765353897,1676.1904761904761
1650546435145.191,107.891765353897,1698.9010989010987
1650546435146.487,107.891765353897,1712.087912087912
1650546435147.591,107.891765353897,1715.018315018315
1650546435148.804,107.891765353897,1709.1575091575091
1650546435174.9712,107.891765353897,1690.8424908424906
1650546435175.147,107.83236994219654,1662.2710622710622
1650546435200.146,107.95122623312207,1623.4432234432234
1650546435201.172,107.891765353897,1582.4175824175823
1650546435201.301,107.891765353897,1539.9267399267399
1650546435207.646,107.891765353897,1501.098901098901
1650546435208.9282,107.891765353897,1463.003663003663
1650546435209.974,107.891765353897,1430.7692307692307
1650546435210.126,107.891765353897,1404.3956043956043
1650546435235.031,107.83236994219654,1383.150183150183
1650546435236.341,107.891765353897,1362.6373626373625
1650546435261.259,107.83236994219654,1346.5201465201465
1650546435261.508,107.891765353897,1334.7985347985348
1650546435262.5999,107.891765353897,1328.2051282051282
1650546435271.351,107.83236994219654,1327.4725274725274
1650546435272.552,107.83236994219654,1329.6703296703297
1650546435300.078,107.83236994219654,1332.6007326007325
1650546435300.3198,107.83236994219654,1336.9963369963368
1650546435301.3,107.83236994219654,1342.1245421245421
1650546435326.239,107.77303988995874,1347.985347985348
1650546435326.517,107.83236994219654,1353.8461538461538
1650546435327.511,107.77303988995874,1358.2417582417581
1650546435328.758,107.77303988995874,1361.1721611721612
1650546435338.694,107.77303988995874,1362.6373626373625
1650546435338.884,107.71377508935937,1364.8351648351647
1650546435376.3062,107.77303988995874,1366.3003663003662
1650546435377.523,107.77303988995874,1367.7655677655678
1650546435384.988,107.77303988995874,1369.230769230769
1650546435385.257,107.77303988995874,1369.230769230769
1650546435386.648,107.77303988995874,1370.6959706959706
1650546435387.765,107.77303988995874,1369.9633699633698
1650546435416.323,107.77303988995874,1369.9633699633698
1650546435417.4211,107.83236994219654,1368.4981684981683
1650546435417.712,107.83236994219654,1365.5677655677655
1650546435442.585,107.83236994219654,1364.102564102564
1650546435443.606,107.71377508935937,1363.3699633699632
1650546435443.762,107.77303988995874,1360.4395604395604
1650546435446.342,107.77303988995874,1356.0439560439559
1650546435452.6091,107.71377508935937,1350.9157509157508
1650546435477.532,107.71377508935937,1345.054945054945
1650546435478.607,107.77303988995874,1338.4615384615383
1650546435478.74,107.77303988995874,1331.135531135531
1650546435504.965,107.71377508935937,1326.007326007326
1650546435506.18,107.65457543281121,1320.8791208791208
1650546435506.325,107.65457543281121,1315.7509157509157
1650546435507.4539,107.71377508935937,1312.8205128205127
1650546435533.74,107.65457543281121,1310.6227106227104
1650546435534.813,107.59544081296347,1309.89010989011
1650546435534.947,107.65457543281121,1306.9597069597069
1650546435561.307,107.59544081296347,1305.4945054945053
1650546435562.633,107.65457543281121,1303.2967032967033
1650546435572.344,107.59544081296347,1303.2967032967033
1650546435572.5059,107.59544081296347,1302.5641025641025
1650546435573.677,107.59544081296347,1301.098901098901
1650546435574.893,107.53637112270108,1301.8315018315018
1650546435603.7668,107.53637112270108,1301.098901098901
1650546435604.843,107.59544081296347,1300.3663003663003
1650546435605.0461,107.59544081296347,1298.9010989010987
1650546435623.718,107.59544081296347,1298.168498168498
1650546435624.805,107.53637112270108,1296.7032967032967
1650546435624.971,107.53637112270108,1297.4358974358975
1650546435626.204,107.59544081296347,1298.168498168498
1650546435658.63,107.53637112270108,1299.6336996336995
1650546435681.177,107.53637112270108,1301.8315018315018
1650546435682.3079,107.59544081296347,1304.0293040293038
1650546435682.545,107.53637112270108,1305.4945054945053
1650546435683.7102,107.53637112270108,1306.9597069597069
1650546435684.8171,107.47736625514403,1306.9597069597069
1650546435684.9639,107.59544081296347,1305.4945054945053
1650546435698.647,107.53637112270108,1306.227106227106
1650546435727.47,107.47736625514403,1307.6923076923076
1650546435728.6,107.47736625514403,1312.087912087912
1650546435747.305,107.53637112270108,1317.216117216117
1650546435747.517,107.47736625514403,1322.3443223443223
1650546435748.595,107.53637112270108,1326.7399267399267
1650546435749.776,107.47736625514403,1328.2051282051282
1650546435749.933,107.47736625514403,1328.2051282051282
1650546435751.167,107.47736625514403,1326.007326007326
1650546435778.689,107.41842610364684,1324.5421245421244
1650546435779.9521,107.53637112270108,1323.8095238095236
1650546435800.967,107.47736625514403,1325.2747252747251
1650546435801.1118,107.53637112270108,1323.8095238095236
1650546435807.372,107.41842610364684,1322.3443223443223
1650546435813.699,107.47736625514403,1319.4139194139193
1650546435814.0881,107.47736625514403,1317.9487179487178
1650546435838.622,107.47736625514403,1316.4835164835165
1650546435839.846,107.47736625514403,1313.5531135531135
1650546435865.966,107.41842610364684,1310.6227106227104
1650546435866.09,107.53637112270108,1306.9597069597069
1650546435867.321,107.53637112270108,1303.2967032967033
1650546435868.5579,107.53637112270108,1300.3663003663003
1650546435869.7031,107.47736625514403,1298.168498168498
1650546435869.8489,107.47736625514403,1295.2380952380952
1650546435878.717,107.47736625514403,1288.6446886446886
1650546435903.599,107.53637112270108,1284.2490842490843
1650546435904.749,107.53637112270108,1279.8534798534797
1650546435922.2551,107.59544081296347,1276.1904761904761
1650546435922.518,107.59544081296347,1274.7252747252746
1650546435923.5872,107.53637112270108,1273.9926739926739
1650546435932.314,107.53637112270108,1273.9926739926739
1650546435933.571,107.59544081296347,1276.1904761904761
1650546435963.595,107.53637112270108,1279.120879120879
1650546435964.8691,107.59544081296347,1284.2490842490843
1650546435984.893,107.53637112270108,1290.10989010989
1650546435985.936,107.59544081296347,1295.970695970696
1650546435986.215,107.53637112270108,1301.8315018315018
1650546435987.282,107.53637112270108,1306.227106227106
1650546435992.366,107.47736625514403,1309.89010989011
1650546435992.6072,107.47736625514403,1311.3553113553112
1650546436021.052,107.41842610364684,1312.8205128205127
1650546436022.222,107.47736625514403,1314.2857142857142
1650546436043.4849,107.41842610364684,1318.6813186813185
1650546436044.615,107.41842610364684,1326.7399267399267
1650546436044.7432,107.35955056179776,1341.3919413919414
1650546436046.128,107.35955056179776,1359.7069597069597
1650546436075.968,107.30073952341824,1386.8131868131868
1650546436076.198,107.35955056179776,1419.7802197802198
1650546436077.1848,107.35955056179776,1458.6080586080584
1650546436102.59,107.35955056179776,1501.098901098901
1650546436103.2961,107.30073952341824,1544.3223443223442
1650546436103.375,107.30073952341824,1586.080586080586
1650546436106.038,107.30073952341824,1622.7106227106226
1650546436107.2349,107.30073952341824,1657.8754578754579
1650546436133.32,107.24199288256229,1684.9816849816848
1650546436133.473,107.24199288256229,1703.296703296703
1650546436134.736,107.24199288256229,1712.087912087912
1650546436161.0579,107.24199288256229,1710.6227106227104
1650546436162.114,107.24199288256229,1701.8315018315018
1650546436162.313,107.24199288256229,1684.9816849816848
1650546436171.118,107.24199288256229,1663.003663003663
1650546436172.2861,107.24199288256229,1635.164835164835
1650546436199.5981,107.18331053351574,1605.8608058608058
1650546436199.771,107.24199288256229,1572.8937728937728
1650546436201.0642,107.18331053351574,1538.4615384615383
1650546436222.19,107.24199288256229,1504.7619047619046
1650546436223.318,107.12469237079574,1475.4578754578754
1650546436223.4731,107.24199288256229,1449.8168498168498
1650546436224.653,107.24199288256229,1427.106227106227
1650546436252.294,107.24199288256229,1410.2564102564102
1650546436253.278,107.18331053351574,1400.0
1650546436253.4011,107.18331053351574,1392.6739926739926
1650546436285.827,107.24199288256229,1385.3479853479853
1650546436286.011,107.24199288256229,1378.021978021978
1650546436286.0679,107.18331053351574,1373.6263736263736
1650546436286.105,107.18331053351574,1370.6959706959706
1650546436287.126,107.24199288256229,1369.9633699633698
1650546436313.3708,107.24199288256229,1370.6959706959706
1650546436314.524,107.18331053351574,1373.6263736263736
1650546436314.6938,107.24199288256229,1378.021978021978
1650546436339.6968,107.24199288256229,1382.4175824175823
1650546436340.911,107.18331053351574,1389.0109890109889
1650546436345.977,107.18331053351574,1397.069597069597
1650546436347.2441,107.24199288256229,1405.128205128205
1650546436347.416,107.24199288256229,1411.7216117216117
1650546436377.155,107.18331053351574,1419.047619047619
1650546436378.232,107.18331053351574,1427.8388278388277
1650546436378.3628,107.18331053351574,1435.8974358974358
1650546436403.378,107.24199288256229,1443.956043956044
1650546436404.5679,107.18331053351574,1448.3516483516482
1650546436405.729,107.18331053351574,1451.2820512820513
1650546436405.894,107.18331053351574,1448.3516483516482
1650546436407.144,107.18331053351574,1447.6190476190475
1650546436432.191,107.12469237079574,1446.153846153846
1650546436433.3342,107.12469237079574,1445.4212454212454
1650546436433.74,107.24199288256229,1441.7582417582416
1650546436459.623,107.18331053351574,1438.8278388278388
1650546436460.915,107.18331053351574,1435.8974358974358
1650546436467.07,107.18331053351574,1430.7692307692307
1650546436468.185,107.18331053351574,1425.6410256410256
1650546436468.323,107.12469237079574,1418.3150183150183
1650546436495.9568,107.12469237079574,1409.5238095238094
1650546436496.925,107.18331053351574,1400.7326007326005
1650546436497.112,107.18331053351574,1393.4065934065934
1650546436525.6292,107.18331053351574,1384.6153846153845
1650546436525.869,107.18331053351574,1376.5567765567764
1650546436527.073,107.18331053351574,1368.4981684981683
1650546436535.717,107.18331053351574,1360.4395604395604
1650546436535.887,107.18331053351574,1352.3809523809523
1650546436562.083,107.18331053351574,1344.3223443223442
1650546436563.169,107.12469237079574,1338.4615384615383
1650546436563.329,107.18331053351574,1331.8681318681317
1650546436582.102,107.18331053351574,1328.2051282051282
1650546436583.256,107.18331053351574,1326.7399267399267
1650546436584.4878,107.12469237079574,1326.7399267399267
1650546436598.137,107.18331053351574,1325.2747252747251
1650546436598.3328,107.12469237079574,1326.7399267399267
1650546436633.2441,107.18331053351574,1328.2051282051282
1650546436634.357,107.18331053351574,1330.4029304029302
1650546436634.4832,107.18331053351574,1331.135531135531
1650546436643.333,107.18331053351574,1333.3333333333333
1650546436644.5562,107.18331053351574,1335.5311355311355
1650546436677.1318,107.18331053351574,1337.7289377289376
1650546436678.063,107.12469237079574,1338.4615384615383
1650546436678.169,107.18331053351574,1342.1245421245421
1650546436704.551,107.18331053351574,1345.054945054945
1650546436705.543,107.18331053351574,1347.985347985348
1650546436705.639,107.18331053351574,1348.7179487179487
1650546436707.969,107.12469237079574,1349.4505494505493
1650546436708.162,107.18331053351574,1347.2527472527472
1650546436709.531,107.12469237079574,1345.7875457875457
1650546436735.854,107.18331053351574,1344.3223443223442
1650546436736.1108,107.12469237079574,1344.3223443223442
1650546436736.9758,107.18331053351574,1342.8571428571427
1650546436764.3062,107.18331053351574,1340.6593406593406
1650546436764.434,107.18331053351574,1337.7289377289376
1650546436765.7139,107.18331053351574,1336.9963369963368
1650546436768.2148,107.18331053351574,1337.7289377289376
1650546436774.58,107.12469237079574,1336.9963369963368
1650546436799.381,107.18331053351574,1337.7289377289376
1650546436799.608,107.18331053351574,1336.263736263736
1650546436800.73,107.18331053351574,1334.065934065934
1650546436821.938,107.12469237079574,1331.135531135531
1650546436822.9111,107.18331053351574,1327.4725274725274
1650546436823.114,107.18331053351574,1323.8095238095236
1650546436824.3489,107.18331053351574,1321.6117216117216
1650546436838.212,107.12469237079574,1319.4139194139193
1650546436863.2158,107.18331053351574,1317.9487179487178
1650546436863.384,107.18331053351574,1315.7509157509157
1650546436864.421,107.18331053351574,1314.2857142857142
1650546436884.344,107.18331053351574,1312.8205128205127
1650546436884.575,107.18331053351574,1310.6227106227104
1650546436885.686,107.18331053351574,1306.9597069597069
1650546436886.872,107.18331053351574,1304.0293040293038
1650546436920.677,107.18331053351574,1300.3663003663003
1650546436944.335,107.24199288256229,1298.168498168498
1650546436944.535,107.18331053351574,1298.168498168498
1650546436945.742,107.18331053351574,1301.098901098901
1650546436946.768,107.12469237079574,1306.227106227106
1650546436946.884,107.18331053351574,1310.6227106227104
1650546436948.081,107.24199288256229,1312.087912087912
1650546436949.3079,107.18331053351574,1313.5531135531135
1650546436974.541,107.18331053351574,1315.018315018315
1650546436975.467,107.18331053351574,1316.4835164835165
1650546436975.594,107.18331053351574,1313.5531135531135
1650546437001.796,107.18331053351574,1312.087912087912
1650546437002.949,107.12469237079574,1308.4249084249084
1650546437003.071,107.18331053351574,1305.4945054945053
1650546437005.6692,107.24199288256229,1304.0293040293038
1650546437014.4082,107.24199288256229,1304.7619047619046
1650546437046.72,107.18331053351574,1306.227106227106
1650546437046.883,107.24199288256229,1307.6923076923076
1650546437048.074,107.24199288256229,1309.89010989011
1650546437060.7332,107.24199288256229,1310.6227106227104
1650546437061.722,107.18331053351574,1312.087912087912
1650546437061.945,107.18331053351574,1317.9487179487178
1650546437063.08,107.24199288256229,1331.135531135531
1650546437076.8909,107.18331053351574,1353.8461538461538
1650546437105.582,107.24199288256229,1385.3479853479853
1650546437106.658,107.30073952341824,1424.1758241758241
1650546437106.868,107.30073952341824,1468.8644688644688
1650546437121.0898,107.24199288256229,1515.018315018315
1650546437121.6199,107.24199288256229,1562.6373626373625
1650546437121.682,107.24199288256229,1610.989010989011
1650546437130.559,107.24199288256229,1654.212454212454
1650546437136.875,107.24199288256229,1691.5750915750914
1650546437163.087,107.24199288256229,1721.6117216117216
1650546437164.1272,107.30073952341824,1742.124542124542
1650546437164.294,107.30073952341824,1753.113553113553
1650546437185.662,107.24199288256229,1753.113553113553
1650546437187.886,107.24199288256229,1742.124542124542
1650546437188.0232,107.30073952341824,1723.0769230769229
1650546437189.218,107.30073952341824,1696.7032967032967
1650546437230.5442,107.18331053351574,1667.3992673992673
1650546437231.7021,107.24199288256229,1634.4322344322343
1650546437236.6372,107.24199288256229,1601.4652014652013
1650546437236.81,107.24199288256229,1568.4981684981683
1650546437237.994,107.24199288256229,1538.4615384615383
1650546437239.0898,107.24199288256229,1511.3553113553112
1650546437239.227,107.24199288256229,1489.3772893772893
1650546437252.9958,107.30073952341824,1472.5274725274724
1650546437279.167,107.30073952341824,1460.07326007326
1650546437280.263,107.24199288256229,1449.8168498168498
1650546437280.3381,107.24199288256229,1439.5604395604394
1650546437281.776,107.30073952341824,1431.5018315018315
1650546437302.9102,107.18331053351574,1426.3736263736262
1650546437304.052,107.24199288256229,1420.5128205128203
1650546437304.221,107.30073952341824,1416.8498168498168
1650546437317.92,107.24199288256229,1413.1868131868132
1650546437345.4731,107.30073952341824,1409.5238095238094
1650546437346.6648,107.24199288256229,1408.7912087912086
1650546437362.822,107.30073952341824,1412.4542124542124
1650546437362.941,107.24199288256229,1416.117216117216
1650546437364.1902,107.30073952341824,1420.5128205128203
1650546437365.232,107.30073952341824,1427.8388278388277
1650546437365.347,107.30073952341824,1435.8974358974358
1650546437392.981,107.30073952341824,1444.6886446886447
1650546437394.155,107.30073952341824,1451.2820512820513
1650546437420.5042,107.30073952341824,1457.8754578754579
1650546437421.498,107.30073952341824,1463.7362637362637
1650546437421.638,107.30073952341824,1468.131868131868
1650546437427.8591,107.30073952341824,1472.5274725274724
1650546437429.011,107.30073952341824,1477.6556776556777
1650546437429.141,107.30073952341824,1482.051282051282
1650546437454.153,107.24199288256229,1483.5164835164835
1650546437455.493,107.30073952341824,1483.5164835164835
1650546437481.662,107.24199288256229,1480.5860805860805
1650546437482.718,107.35955056179776,1474.7252747252746
1650546437482.863,107.35955056179776,1467.3992673992673
1650546437486.636,107.35955056179776,1459.3406593406592
1650546437491.466,107.30073952341824,1451.2820512820513
1650546437491.6338,107.30073952341824,1441.7582417582416
1650546437519.1619,107.30073952341824,1430.03663003663
1650546437520.4128,107.35955056179776,1419.7802197802198
1650546437541.9568,107.30073952341824,1411.7216117216117
1650546437542.697,107.30073952341824,1403.6630036630036
1650546437542.8591,107.35955056179776,1396.3369963369962
1650546437544.059,107.35955056179776,1388.278388278388
1650546437557.699,107.30073952341824,1382.4175824175823
1650546437557.8599,107.30073952341824,1375.8241758241757
1650546437587.843,107.35955056179776,1368.4981684981683
1650546437589.072,107.35955056179776,1364.8351648351647
1650546437599.1,107.30073952341824,1360.4395604395604
1650546437599.304,107.35955056179776,1358.974358974359
1650546437600.374,107.35955056179776,1356.7765567765566
1650546437614.0188,107.35955056179776,1354.5787545787546
1650546437615.0962,107.35955056179776,1353.113553113553
1650546437615.184,107.35955056179776,1352.3809523809523
1650546437645.3691,107.35955056179776,1353.113553113553
1650546437646.504,107.41842610364684,1356.7765567765566
1650546437661.561,107.35955056179776,1360.4395604395604
1650546437662.627,107.35955056179776,1364.8351648351647
1650546437662.7542,107.35955056179776,1365.5677655677655
1650546437667.758,107.35955056179776,1364.8351648351647
1650546437693.999,107.35955056179776,1362.6373626373625
1650546437694.418,107.35955056179776,1361.1721611721612
1650546437695.395,107.41842610364684,1360.4395604395604
1650546437722.795,107.41842610364684,1358.974358974359
1650546437724.018,107.35955056179776,1358.974358974359
1650546437725.075,107.35955056179776,1358.974358974359
1650546437725.183,107.41842610364684,1356.7765567765566
1650546437731.522,107.41842610364684,1356.0439560439559
1650546437760.198,107.35955056179776,1353.113553113553
1650546437760.4211,107.41842610364684,1351.6483516483515
1650546437761.513,107.41842610364684,1348.7179487179487
1650546437780.343,107.41842610364684,1347.985347985348
1650546437781.2769,107.35955056179776,1345.7875457875457
1650546437781.354,107.41842610364684,1345.054945054945
1650546437782.664,107.41842610364684,1342.8571428571427
1650546437797.605,107.41842610364684,1342.1245421245421
1650546437825.0908,107.41842610364684,1343.5897435897434
1650546437825.273,107.41842610364684,1346.5201465201465
1650546437826.511,107.41842610364684,1349.4505494505493
1650546437841.43,107.47736625514403,1350.9157509157508
1650546437842.602,107.41842610364684,1348.7179487179487
1650546437842.834,107.41842610364684,1345.054945054945
1650546437848.9612,107.47736625514403,1339.194139194139
1650546437875.284,107.35955056179776,1333.3333333333333
1650546437881.215,107.41842610364684,1327.4725274725274
1650546437881.301,107.47736625514403,1323.076923076923
1650546437901.4138,107.47736625514403,1320.8791208791208
1650546437902.704,107.47736625514403,1319.4139194139193
1650546437907.747,107.41842610364684,1318.6813186813185
1650546437908.7551,107.47736625514403,1318.6813186813185
1650546437908.854,107.47736625514403,1318.6813186813185
1650546437918.136,107.41842610364684,1318.6813186813185
1650546437943.892,107.41842610364684,1320.14652014652
1650546437946.883,107.47736625514403,1322.3443223443223
1650546437957.744,107.47736625514403,1322.3443223443223
1650546437959.8179,107.53637112270108,1322.3443223443223
1650546437960.171,107.41842610364684,1322.3443223443223
1650546437973.757,107.47736625514403,1323.8095238095236
1650546437973.9612,107.47736625514403,1323.8095238095236
1650546438001.6848,107.47736625514403,1325.2747252747251
1650546438002.448,107.47736625514403,1325.2747252747251
1650546438002.558,107.53637112270108,1325.2747252747251
1650546438022.886,107.53637112270108,1323.076923076923
1650546438023.8298,107.47736625514403,1320.14652014652
1650546438024.973,107.47736625514403,1317.216117216117
1650546438025.1301,107.53637112270108,1314.2857142857142
1650546438050.196,107.53637112270108,1312.087912087912
1650546438051.282,107.47736625514403,1309.89010989011
1650546438079.9329,107.41842610364684,1308.4249084249084
1650546438080.083,107.53637112270108,1307.6923076923076
1650546438081.261,107.53637112270108,1308.4249084249084
1650546438083.868,107.53637112270108,1309.89010989011
1650546438088.858,107.47736625514403,1312.087912087912
1650546438097.43,107.53637112270108,1316.4835164835165
1650546438097.585,107.47736625514403,1324.5421245421244
1650546438122.515,107.53637112270108,1336.263736263736
1650546438123.593,107.53637112270108,1352.3809523809523
1650546438123.6812,107.53637112270108,1376.5567765567764
1650546438141.318,107.47736625514403,1408.058608058608
1650546438142.508,107.41842610364684,1446.153846153846
1650546438148.646,107.53637112270108,1486.4468864468863
1650546438148.811,107.53637112270108,1529.6703296703295
1650546438175.3918,107.53637112270108,1573.6263736263736
1650546438176.2021,107.53637112270108,1615.3846153846152
1650546438202.493,107.53637112270108,1654.212454212454
1650546438202.7,107.59544081296347,1684.249084249084
1650546438203.844,107.59544081296347,1706.227106227106
1650546438205.051,107.53637112270108,1721.6117216117216
1650546438206.2012,107.53637112270108,1726.7399267399267
1650546438232.342,107.59544081296347,1723.8095238095236
1650546438232.497,107.59544081296347,1709.1575091575091
1650546438233.679,107.59544081296347,1686.4468864468863
1650546438262.395,107.53637112270108,1659.3406593406592
1650546438262.593,107.53637112270108,1631.5018315018315
1650546438263.7588,107.59544081296347,1600.7326007326005
1650546438264.982,107.59544081296347,1572.161172161172
1650546438277.531,107.53637112270108,1542.1245421245421
1650546438277.666,107.53637112270108,1512.8205128205127
1650546438303.721,107.59544081296347,1484.2490842490843
1650546438305.048,107.59544081296347,1459.3406593406592
1650546438323.583,107.53637112270108,1439.5604395604394
1650546438323.804,107.59544081296347,1424.9084249084249
1650546438325.012,107.59544081296347,1412.4542124542124
1650546438326.204,107.59544081296347,1402.197802197802
1650546438335.362,107.59544081296347,1396.3369963369962
1650546438335.488,107.59544081296347,1391.2087912087911
1650546438367.414,107.59544081296347,1388.278388278388
1650546438368.696,107.65457543281121,1385.3479853479853
1650546438381.0588,107.59544081296347,1382.4175824175823
1650546438381.206,107.59544081296347,1386.080586080586
1650546438383.6418,107.59544081296347,1389.0109890109889
1650546438383.977,107.59544081296347,1394.8717948717947
1650546438397.509,107.59544081296347,1400.0
1650546438424.8381,107.59544081296347,1406.5934065934066
1650546438425.014,107.65457543281121,1413.9194139194137
1650546438426.2021,107.65457543281121,1422.7106227106226
1650546438442.2458,107.59544081296347,1434.4322344322343
1650546438442.426,107.65457543281121,1448.3516483516482
1650546438443.571,107.65457543281121,1463.7362637362637
1650546438452.3499,107.65457543281121,1475.4578754578754
1650546438487.4011,107.59544081296347,1484.9816849816848
1650546438488.5981,107.65457543281121,1490.10989010989
1650546438488.824,107.59544081296347,1495.2380952380952
1650546438502.378,107.65457543281121,1497.4358974358972
1650546438503.4849,107.65457543281121,1496.7032967032967
1650546438503.69,107.65457543281121,1493.040293040293
1650546438504.961,107.59544081296347,1485.7142857142856
1650546438531.1401,107.65457543281121,1476.923076923077
1650546438532.5452,107.59544081296347,1465.201465201465
1650546438532.772,107.65457543281121,1453.4798534798533
1650546438558.63,107.71377508935937,1440.2930402930401
1650546438559.906,107.65457543281121,1426.3736263736262
1650546438568.4631,107.65457543281121,1413.9194139194137
1650546438568.6492,107.71377508935937,1403.6630036630036
1650546438569.8882,107.65457543281121,1392.6739926739926
1650546438571.018,107.59544081296347,1384.6153846153845
1650546438596.11,107.65457543281121,1377.2893772893772
1650546438597.1328,107.65457543281121,1369.9633699633698
1650546438597.252,107.71377508935937,1363.3699633699632
1650546438619.82,107.71377508935937,1358.2417582417581
1650546438620.931,107.65457543281121,1355.3113553113553
1650546438621.114,107.65457543281121,1356.7765567765566
1650546438626.079,107.71377508935937,1354.5787545787546
1650546438650.964,107.71377508935937,1353.8461538461538
1650546438652.256,107.65457543281121,1352.3809523809523
1650546438682.1301,107.71377508935937,1352.3809523809523
1650546438682.3062,107.71377508935937,1349.4505494505493
1650546438683.509,107.71377508935937,1347.2527472527472
1650546438684.625,107.71377508935937,1345.7875457875457
1650546438684.8071,107.71377508935937,1347.985347985348
1650546438686.004,107.71377508935937,1351.6483516483515
1650546438714.842,107.65457543281121,1353.8461538461538
1650546438715.993,107.71377508935937,1355.3113553113553
1650546438742.0881,107.71377508935937,1356.7765567765566
1650546438742.208,107.71377508935937,1356.7765567765566
1650546438743.5889,107.59544081296347,1361.1721611721612
1650546438744.587,107.65457543281121,1361.904761904762
1650546438744.739,107.71377508935937,1361.1721611721612
1650546438772.267,107.71377508935937,1357.5091575091574
1650546438773.439,107.65457543281121,1356.0439560439559
1650546438800.715,107.65457543281121,1354.5787545787546
1650546438800.851,107.71377508935937,1354.5787545787546
1650546438800.896,107.71377508935937,1352.3809523809523
1650546438804.719,107.71377508935937,1352.3809523809523
1650546438810.88,107.65457543281121,1350.9157509157508
1650546438811.131,107.77303988995874,1349.4505494505493
1650546438837.26,107.71377508935937,1347.2527472527472
1650546438838.445,107.77303988995874,1344.3223443223442
1650546438864.572,107.71377508935937,1342.8571428571427
1650546438864.744,107.77303988995874,1340.6593406593406
1650546438865.9329,107.77303988995874,1339.194139194139
1650546438867.114,107.77303988995874,1338.4615384615383
1650546438868.237,107.71377508935937,1337.7289377289376
1650546438868.36,107.71377508935937,1336.9963369963368
1650546438895.906,107.77303988995874,1334.7985347985348
1650546438897.113,107.77303988995874,1330.4029304029302
1650546438920.9011,107.77303988995874,1328.2051282051282
1650546438921.992,107.77303988995874,1327.4725274725274
1650546438922.147,107.77303988995874,1324.5421245421244
1650546438923.368,107.77303988995874,1326.007326007326
1650546438928.352,107.77303988995874,1329.6703296703297
1650546438928.675,107.77303988995874,1333.3333333333333
1650546438959.6702,107.77303988995874,1334.065934065934
1650546438960.785,107.77303988995874,1336.9963369963368
1650546438983.3,107.77303988995874,1339.9267399267399
1650546438984.4648,107.77303988995874,1344.3223443223442
1650546438984.622,107.83236994219654,1345.054945054945
1650546438986.267,107.83236994219654,1345.7875457875457
1650546438990.711,107.77303988995874,1344.3223443223442
1650546438990.865,107.77303988995874,1343.5897435897434
1650546439019.605,107.83236994219654,1340.6593406593406
1650546439023.201,107.83236994219654,1336.263736263736
1650546439042.052,107.77303988995874,1331.135531135531
1650546439043.1719,107.77303988995874,1328.2051282051282
1650546439043.291,107.83236994219654,1325.2747252747251
1650546439044.583,107.77303988995874,1323.8095238095236
1650546439073.2168,107.83236994219654,1324.5421245421244
1650546439073.3691,107.77303988995874,1324.5421245421244
1650546439074.522,107.83236994219654,1323.076923076923
1650546439099.649,107.83236994219654,1322.3443223443223
1650546439100.6392,107.83236994219654,1320.8791208791208
1650546439100.796,107.83236994219654,1321.6117216117216
1650546439105.874,107.83236994219654,1323.8095238095236
1650546439106.985,107.83236994219654,1329.6703296703297
1650546439139.3708,107.83236994219654,1341.3919413919414
1650546439139.523,107.83236994219654,1361.1721611721612
1650546439140.9,107.891765353897,1383.8827838827838
1650546439155.7,107.83236994219654,1415.3846153846152
1650546439156.9778,107.83236994219654,1451.2820512820513
1650546439158.093,107.83236994219654,1491.5750915750914
1650546439158.237,107.83236994219654,1534.7985347985348
1650546439196.92,107.83236994219654,1581.6849816849815
1650546439198.029,107.83236994219654,1629.3040293040292
1650546439198.125,107.83236994219654,1672.5274725274724
1650546439221.8909,107.891765353897,1706.9597069597069
1650546439223.1829,107.891765353897,1733.3333333333333
1650546439224.453,107.83236994219654,1750.9157509157508
1650546439225.996,107.891765353897,1756.7765567765566
1650546439226.2422,107.83236994219654,1751.6483516483515
1650546439232.007,107.891765353897,1737.7289377289376
1650546439258.032,107.83236994219654,1716.4835164835163
1650546439258.152,107.83236994219654,1689.3772893772893
1650546439259.374,107.891765353897,1657.142857142857
1650546439284.553,107.891765353897,1625.6410256410256
1650546439285.991,107.83236994219654,1592.6739926739926
1650546439291.857,107.891765353897,1561.9047619047617
1650546439292.103,107.891765353897,1531.135531135531
1650546439316.9392,107.891765353897,1507.6923076923076
1650546439318.017,107.83236994219654,1486.4468864468863
1650546439318.3032,107.83236994219654,1468.8644688644688
1650546439318.369,107.83236994219654,1457.8754578754579
1650546439343.102,107.891765353897,1448.3516483516482
1650546439344.274,107.891765353897,1441.7582417582416
1650546439344.497,107.95122623312207,1435.164835164835
1650546439345.603,107.95122623312207,1430.03663003663
1650546439375.65,107.891765353897,1427.106227106227
1650546439376.672,107.891765353897,1423.4432234432234
1650546439376.75,107.95122623312207,1419.7802197802198
1650546439378.339,107.95122623312207,1416.117216117216
1650546439404.325,107.891765353897,1415.3846153846152
1650546439409.498,107.95122623312207,1416.117216117216
1650546439409.689,107.95122623312207,1421.245421245421
1650546439420.633,107.95122623312207,1425.6410256410256
1650546439421.781,107.891765353897,1430.7692307692307
1650546439428.087,107.891765353897,1436.6300366300366
1650546439428.3909,107.891765353897,1442.4908424908424
1650546439441.981,107.95122623312207,1449.084249084249
1650546439448.619,107.891765353897,1454.9450549450548
1650546439473.012,107.891765353897,1462.2710622710622
1650546439474.17,107.891765353897,1466.6666666666665
1650546439474.2998,107.891765353897,1470.3296703296703
1650546439496.278,107.891765353897,1474.7252747252746
1650546439496.854,107.891765353897,1478.3882783882782
1650546439497.137,107.95122623312207,1478.3882783882782
1650546439498.07,107.891765353897,1474.7252747252746
1650546439524.31,107.83236994219654,1469.5970695970695
1650546439525.495,107.891765353897,1461.5384615384614
1650546439553.124,107.891765353897,1457.142857142857
1650546439553.478,107.95122623312207,1449.8168498168498
1650546439553.524,107.95122623312207,1443.2234432234432
1650546439555.53,107.95122623312207,1434.4322344322343
1650546439555.8118,107.83236994219654,1427.8388278388277
1650546439569.237,107.95122623312207,1420.5128205128203
1650546439594.2039,107.95122623312207,1413.9194139194137
1650546439595.4968,107.95122623312207,1405.8608058608058
1650546439614.1328,107.891765353897,1400.0
1650546439614.395,107.95122623312207,1394.8717948717947
1650546439615.438,107.95122623312207,1389.7435897435896
1650546439616.614,107.891765353897,1384.6153846153845
1650546439616.807,107.95122623312207,1381.6849816849815
1650546439644.331,107.891765353897,1377.2893772893772
1650546439645.429,107.95122623312207,1372.8937728937728
1650546439672.857,107.95122623312207,1369.230769230769
1650546439673.034,107.891765353897,1367.032967032967
1650546439674.194,107.891765353897,1362.6373626373625
1650546439675.3918,107.95122623312207,1361.1721611721612
1650546439676.5571,107.95122623312207,1359.7069597069597
1650546439676.718,107.95122623312207,1359.7069597069597
1650546439705.635,107.891765353897,1359.7069597069597
1650546439706.6792,107.95122623312207,1358.974358974359
1650546439731.668,107.95122623312207,1357.5091575091574
1650546439731.956,107.95122623312207,1356.0439560439559
1650546439732.879,107.891765353897,1356.7765567765566
1650546439734.147,107.95122623312207,1358.2417582417581
1650546439742.736,107.95122623312207,1359.7069597069597
1650546439742.859,107.891765353897,1361.904761904762
1650546439769.105,107.95122623312207,1362.6373626373625
1650546439769.413,107.95122623312207,1362.6373626373625
1650546439796.873,107.891765353897,1361.904761904762
1650546439797.717,107.891765353897,1359.7069597069597
1650546439797.884,107.95122623312207,1356.0439560439559
1650546439799.094,107.95122623312207,1353.113553113553
1650546439800.23,107.95122623312207,1349.4505494505493
1650546439800.374,107.891765353897,1345.054945054945
1650546439826.6958,107.95122623312207,1342.8571428571427
1650546439827.844,107.95122623312207,1342.1245421245421
1650546439831.495,107.95122623312207,1343.5897435897434
1650546439831.665,107.891765353897,1345.054945054945
1650546439859.0469,107.95122623312207,1344.3223443223442
1650546439860.415,107.95122623312207,1345.054945054945
1650546439866.504,107.95122623312207,1343.5897435897434
1650546439866.697,107.891765353897,1341.3919413919414
1650546439900.302,107.891765353897,1338.4615384615383
1650546439901.591,107.95122623312207,1336.9963369963368
1650546439901.726,107.95122623312207,1336.263736263736
1650546439901.76,107.891765353897,1335.5311355311355
1650546439912.884,107.95122623312207,1335.5311355311355
1650546439914.167,107.95122623312207,1334.7985347985348
1650546439927.692,107.95122623312207,1334.065934065934
1650546439927.857,107.891765353897,1331.135531135531
1650546439954.438,107.891765353897,1326.7399267399267
1650546439954.684,107.891765353897,1321.6117216117216
1650546439971.575,107.891765353897,1317.9487179487178
1650546439972.623,107.891765353897,1317.9487179487178
1650546439972.8032,107.891765353897,1317.9487179487178
1650546439985.573,107.891765353897,1317.216117216117
1650546440008.949,107.891765353897,1317.216117216117
1650546440009.168,107.83236994219654,1315.7509157509157
1650546440010.192,107.891765353897,1315.018315018315
1650546440032.814,107.891765353897,1315.018315018315
1650546440034.017,107.891765353897,1316.4835164835165
1650546440035.1902,107.891765353897,1318.6813186813185
1650546440035.389,107.891765353897,1321.6117216117216
1650546440049.002,107.95122623312207,1322.3443223443223
1650546440075.064,107.891765353897,1324.5421245421244
1650546440075.337,107.83236994219654,1324.5421245421244
1650546440076.511,107.95122623312207,1324.5421245421244
1650546440093.567,107.891765353897,1324.5421245421244
1650546440093.913,107.891765353897,1324.5421245421244
1650546440095.0688,107.83236994219654,1325.2747252747251
1650546440095.202,107.891765353897,1323.8095238095236
1650546440108.895,107.891765353897,1321.6117216117216
1650546440136.3389,107.891765353897,1320.14652014652
1650546440136.624,107.83236994219654,1320.14652014652
1650546440137.667,107.891765353897,1317.216117216117
1650546440155.174,107.891765353897,1317.9487179487178
1650546440156.238,107.891765353897,1320.14652014652
1650546440156.334,107.77303988995874,1326.7399267399267
1650546440157.706,107.891765353897,1335.5311355311355
1650546440183.9868,107.891765353897,1352.3809523809523
1650546440185.005,107.891765353897,1372.8937728937728
1650546440185.184,107.83236994219654,1399.2673992673992
1650546440213.793,107.891765353897,1432.2344322344322
1650546440214.057,107.77303988995874,1471.062271062271
1650546440216.348,107.83236994219654,1512.087912087912
1650546440217.4348,107.83236994219654,1557.5091575091574
1650546440217.572,107.891765353897,1602.197802197802
1650546440245.071,107.83236994219654,1643.956043956044
1650546440246.217,107.77303988995874,1680.5860805860805
1650546440246.379,107.83236994219654,1712.087912087912
1650546440273.9648,107.83236994219654,1734.7985347985348
1650546440275.06,107.77303988995874,1749.4505494505493
1650546440277.6511,107.83236994219654,1752.3809523809523
1650546440278.689,107.77303988995874,1748.7179487179485
1650546440278.819,107.83236994219654,1736.263736263736
1650546440318.908,107.71377508935937,1715.018315018315
1650546440319.9102,107.83236994219654,1684.249084249084
1650546440320.033,107.77303988995874,1652.0146520146518
1650546440328.823,107.83236994219654,1616.117216117216
1650546440330.111,107.83236994219654,1580.9523809523807
1650546440338.847,107.83236994219654,1546.5201465201465
1650546440364.909,107.83236994219654,1515.7509157509157
1650546440365.043,107.83236994219654,1490.10989010989
1650546440366.2961,107.83236994219654,1469.5970695970695
1650546440391.113,107.83236994219654,1454.9450549450548
1650546440391.255,107.83236994219654,1446.153846153846
1650546440392.555,107.83236994219654,1440.2930402930401
1650546440398.8408,107.83236994219654,1438.095238095238
1650546440399.9,107.83236994219654,1435.164835164835
1650546440400.0908,107.77303988995874,1430.7692307692307
1650546440408.735,107.77303988995874,1427.106227106227
1650546440437.469,107.83236994219654,1424.1758241758241
1650546440438.551,107.83236994219654,1421.245421245421
1650546440438.653,107.77303988995874,1420.5128205128203
1650546440454.962,107.77303988995874,1419.047619047619
1650546440456.166,107.83236994219654,1419.7802197802198
1650546440457.321,107.83236994219654,1421.245421245421
1650546440457.488,107.77303988995874,1424.1758241758241
1650546440483.701,107.77303988995874,1426.3736263736262
1650546440484.9192,107.77303988995874,1428.5714285714284
1650546440509.896,107.83236994219654,1435.8974358974358
1650546440510.196,107.77303988995874,1443.2234432234432
1650546440511.136,107.83236994219654,1452.014652014652
1650546440522.4111,107.77303988995874,1460.07326007326
1650546440523.5369,107.77303988995874,1467.3992673992673
1650546440523.709,107.77303988995874,1473.260073260073
1650546440548.761,107.77303988995874,1476.1904761904761
1650546440549.9028,107.77303988995874,1478.3882783882782
1650546440574.895,107.77303988995874,1476.1904761904761
1650546440575.198,107.71377508935937,1473.260073260073
1650546440576.145,107.77303988995874,1468.131868131868
1650546440584.882,107.77303988995874,1462.2710622710622
1650546440586.13,107.77303988995874,1456.4102564102564
1650546440610.9878,107.71377508935937,1452.014652014652
1650546440611.113,107.71377508935937,1445.4212454212454
1650546440612.363,107.77303988995874,1436.6300366300366
1650546440637.257,107.77303988995874,1427.106227106227
1650546440637.409,107.77303988995874,1417.5824175824175
1650546440638.641,107.71377508935937,1408.7912087912086
1650546440647.469,107.77303988995874,1400.0
1650546440648.546,107.77303988995874,1394.139194139194
1650546440648.7378,107.71377508935937,1388.278388278388
1650546440676.0781,107.71377508935937,1382.4175824175823
1650546440677.278,107.71377508935937,1378.7545787545787
1650546440698.4539,107.77303988995874,1375.8241758241757
1650546440698.574,107.71377508935937,1372.8937728937728
1650546440699.769,107.71377508935937,1368.4981684981683
1650546440701.0168,107.71377508935937,1364.102564102564
1650546440727.249,107.71377508935937,1360.4395604395604
1650546440727.4858,107.65457543281121,1355.3113553113553
1650546440728.504,107.71377508935937,1350.18315018315
1650546440753.637,107.71377508935937,1345.7875457875457
1650546440754.635,107.71377508935937,1345.054945054945
1650546440754.717,107.71377508935937,1345.7875457875457
1650546440756.0461,107.71377508935937,1345.7875457875457
1650546440757.3308,107.71377508935937,1346.5201465201465
1650546440793.622,107.71377508935937,1346.5201465201465
1650546440794.5881,107.65457543281121,1347.2527472527472
1650546440794.6738,107.71377508935937,1347.2527472527472
1650546440809.864,107.71377508935937,1345.7875457875457
1650546440810.847,107.71377508935937,1345.054945054945
1650546440810.976,107.65457543281121,1346.5201465201465
1650546440812.295,107.71377508935937,1347.985347985348
1650546440825.9648,107.71377508935937,1348.7179487179487
1650546440850.965,107.71377508935937,1347.985347985348
1650546440852.134,107.65457543281121,1347.985347985348
1650546440852.278,107.71377508935937,1348.7179487179487
1650546440872.192,107.71377508935937,1348.7179487179487
1650546440873.332,107.65457543281121,1350.18315018315
1650546440873.552,107.65457543281121,1350.9157509157508
1650546440874.734,107.71377508935937,1350.9157509157508
1650546440888.457,107.71377508935937,1350.18315018315
1650546440914.5369,107.65457543281121,1350.18315018315
1650546440914.675,107.65457543281121,1350.18315018315
1650546440915.8489,107.71377508935937,1346.5201465201465
1650546440934.665,107.65457543281121,1344.3223443223442
1650546440935.8252,107.71377508935937,1342.8571428571427
1650546440935.946,107.65457543281121,1341.3919413919414
1650546440937.1582,107.65457543281121,1339.194139194139
1650546440963.511,107.65457543281121,1336.9963369963368
1650546440964.479,107.65457543281121,1334.7985347985348
1650546440964.57,107.59544081296347,1332.6007326007325
1650546440993.3838,107.59544081296347,1330.4029304029302
1650546440994.575,107.59544081296347,1327.4725274725274
1650546440995.753,107.71377508935937,1323.076923076923
1650546440995.872,107.65457543281121,1320.8791208791208
1650546440997.127,107.65457543281121,1317.9487179487178
1650546441023.3992,107.59544081296347,1317.9487179487178
1650546441025.602,107.71377508935937,1316.4835164835165
1650546441052.063,107.59544081296347,1317.9487179487178
1650546441052.263,107.65457543281121,1317.216117216117
1650546441053.352,107.65457543281121,1317.9487179487178
1650546441060.7878,107.65457543281121,1320.14652014652
1650546441061.0098,107.65457543281121,1318.6813186813185
1650546441062.053,107.65457543281121,1317.9487179487178
1650546441089.61,107.65457543281121,1317.9487179487178
1650546441090.769,107.65457543281121,1321.6117216117216
1650546441091.177,107.59544081296347,1326.7399267399267
1650546441114.605,107.65457543281121,1329.6703296703297
1650546441115.811,107.59544081296347,1333.3333333333333
1650546441117.146,107.65457543281121,1334.065934065934
1650546441117.342,107.53637112270108,1336.9963369963368
1650546441125.8572,107.65457543281121,1337.7289377289376
1650546441153.3142,107.65457543281121,1336.9963369963368
1650546441153.6282,107.65457543281121,1334.065934065934
1650546441173.238,107.59544081296347,1330.4029304029302
1650546441173.376,107.65457543281121,1326.7399267399267
1650546441173.413,107.59544081296347,1323.8095238095236
1650546441174.5342,107.65457543281121,1320.14652014652
1650546441183.241,107.59544081296347,1318.6813186813185
1650546441188.3809,107.59544081296347,1317.216117216117
1650546441214.532,107.53637112270108,1325.2747252747251
1650546441215.645,107.59544081296347,1339.194139194139
1650546441215.807,107.59544081296347,1361.1721611721612
1650546441237.6,107.59544081296347,1386.8131868131868
1650546441238.263,107.53637112270108,1420.5128205128203
1650546441238.875,107.59544081296347,1458.6080586080584
1650546441239.034,107.53637112270108,1501.8315018315018
1650546441270.794,107.59544081296347,1548.7179487179485
1650546441271.993,107.53637112270108,1595.6043956043954
1650546441293.133,107.59544081296347,1637.3626373626373
1650546441293.2798,107.59544081296347,1673.9926739926739
1650546441294.427,107.59544081296347,1703.296703296703
1650546441295.933,107.65457543281121,1723.8095238095236
1650546441304.401,107.59544081296347,1732.6007326007325
1650546441304.605,107.53637112270108,1731.8681318681317
1650546441329.435,107.59544081296347,1720.8791208791208
1650546441330.669,107.59544081296347,1704.0293040293038
1650546441354.5352,107.65457543281121,1679.120879120879
1650546441355.56,107.53637112270108,1651.2820512820513
1650546441355.753,107.53637112270108,1619.7802197802196
1650546441364.493,107.59544081296347,1586.8131868131868
1650546441391.845,107.65457543281121,1554.5787545787546
1650546441392.022,107.59544081296347,1523.8095238095236
1650546441393.148,107.53637112270108,1496.7032967032967
1650546441411.96,107.59544081296347,1470.3296703296703
1650546441414.677,107.59544081296347,1446.153846153846
1650546441414.849,107.59544081296347,1425.6410256410256
1650546441414.891,107.59544081296347,1408.058608058608
1650546441415.636,107.59544081296347,1394.8717948717947
1650546441444.298,107.59544081296347,1385.3479853479853
1650546441444.4832,107.53637112270108,1380.2197802197802
1650546441445.6921,107.59544081296347,1375.091575091575
1650546441473.212,107.59544081296347,1371.4285714285713
1650546441474.49,107.59544081296347,1371.4285714285713
1650546441475.6638,107.53637112270108,1372.161172161172
1650546441476.1309,107.59544081296347,1375.8241758241757
1650546441476.8828,107.59544081296347,1380.2197802197802
1650546441502.948,107.59544081296347,1389.0109890109889
1650546441503.143,107.53637112270108,1397.8021978021977
1650546441504.262,107.59544081296347,1408.7912087912086
1650546441533.3271,107.59544081296347,1421.245421245421
1650546441538.199,107.59544081296347,1435.164835164835
1650546441539.256,107.59544081296347,1446.153846153846
1650546441539.395,107.59544081296347,1455.6776556776556
1650546441540.741,107.59544081296347,1465.201465201465
1650546441575.459,107.59544081296347,1473.9926739926739
1650546441575.682,107.53637112270108,1480.5860805860805
1650546441576.719,107.59544081296347,1484.2490842490843
1650546441596.8188,107.59544081296347,1484.2490842490843
1650546441597.985,107.59544081296347,1482.7838827838827
1650546441599.134,107.53637112270108,1477.6556776556777
1650546441599.2861,107.59544081296347,1471.062271062271
1650546441600.498,107.53637112270108,1461.5384615384614
1650546441627.8801,107.53637112270108,1452.7472527472526
1650546441628.031,107.59544081296347,1441.7582417582416
1650546441629.272,107.59544081296347,1430.03663003663
1650546441650.537,107.59544081296347,1418.3150183150183
1650546441651.718,107.53637112270108,1405.8608058608058
1650546441652.873,107.53637112270108,1396.3369963369962
1650546441653.1729,107.59544081296347,1386.080586080586
1650546441666.796,107.53637112270108,1379.4871794871794
1650546441691.66,107.59544081296347,1369.9633699633698
1650546441691.966,107.53637112270108,1361.1721611721612
1650546441692.94,107.59544081296347,1352.3809523809523
1650546441713.133,107.65457543281121,1346.5201465201465
1650546441714.082,107.59544081296347,1345.7875457875457
1650546441714.332,107.59544081296347,1345.054945054945
1650546441715.6328,107.65457543281121,1345.054945054945
1650546441745.582,107.53637112270108,1347.2527472527472
1650546441745.7358,107.59544081296347,1349.4505494505493
1650546441745.775,107.59544081296347,1351.6483516483515
1650546441770.3381,107.65457543281121,1353.113553113553
1650546441771.601,107.53637112270108,1355.3113553113553
1650546441779.249,107.59544081296347,1356.0439560439559
1650546441780.2961,107.59544081296347,1356.0439560439559
1650546441780.519,107.65457543281121,1353.8461538461538
1650546441805.358,107.59544081296347,1350.18315018315
1650546441806.5232,107.65457543281121,1343.5897435897434
1650546441806.698,107.53637112270108,1339.194139194139
1650546441832.8308,107.53637112270108,1336.263736263736
1650546441834.0671,107.65457543281121,1332.6007326007325
1650546441840.344,107.65457543281121,1331.8681318681317
1650546441840.515,107.53637112270108,1331.8681318681317
1650546441840.549,107.65457543281121,1331.135531135531
1650546441868.143,107.65457543281121,1329.6703296703297
1650546441895.303,107.65457543281121,1330.4029304029302
1650546441895.4922,107.59544081296347,1332.6007326007325
1650546441896.5,107.65457543281121,1333.3333333333333
1650546441898.042,107.65457543281121,1333.3333333333333
1650546441899.055,107.59544081296347,1333.3333333333333
1650546441908.191,107.59544081296347,1331.135531135531
1650546441908.4739,107.59544081296347,1325.2747252747251
1650546441932.762,107.59544081296347,1320.8791208791208
1650546441933.9211,107.65457543281121,1316.4835164835165
1650546441934.083,107.59544081296347,1315.018315018315
1650546441951.574,107.65457543281121,1314.2857142857142
1650546441952.675,107.59544081296347,1313.5531135531135
1650546441954.021,107.65457543281121,1312.087912087912
1650546441981.3909,107.59544081296347,1310.6227106227104
1650546441981.608,107.65457543281121,1308.4249084249084
1650546441982.707,107.65457543281121,1309.89010989011
1650546442008.856,107.65457543281121,1313.5531135531135
1650546442008.995,107.59544081296347,1317.216117216117
1650546442010.257,107.65457543281121,1319.4139194139193
1650546442011.55,107.65457543281121,1323.076923076923
1650546442025.07,107.65457543281121,1324.5421245421244
1650546442025.2021,107.59544081296347,1326.7399267399267
1650546442026.429,107.65457543281121,1323.8095238095236
1650546442060.2961,107.53637112270108,1320.8791208791208
1650546442061.33,107.65457543281121,1315.7509157509157
1650546442061.552,107.59544081296347,1312.087912087912
1650546442070.2468,107.71377508935937,1307.6923076923076
1650546442071.403,107.65457543281121,1304.0293040293038
1650546442085.228,107.65457543281121,1303.2967032967033
1650546442110.085,107.59544081296347,1304.0293040293038
1650546442110.354,107.65457543281121,1304.7619047619046
1650546442111.398,107.65457543281121,1306.227106227106
1650546442137.5662,107.65457543281121,1306.9597069597069
1650546442137.785,107.59544081296347,1307.6923076923076
1650546442138.874,107.65457543281121,1306.9597069597069
1650546442140.124,107.65457543281121,1305.4945054945053
1650546442168.8992,107.65457543281121,1302.5641025641025
1650546442173.561,107.59544081296347,1301.8315018315018
1650546442173.859,107.65457543281121,1299.6336996336995
1650546442187.675,107.65457543281121,1298.168498168498
1650546442188.794,107.65457543281121,1298.168498168498
1650546442188.997,107.59544081296347,1299.6336996336995
1650546442190.211,107.65457543281121,1306.227106227106
1650546442200.3938,107.65457543281121,1314.2857142857142
1650546442224.952,107.65457543281121,1328.2051282051282
1650546442225.091,107.65457543281121,1349.4505494505493
1650546442226.378,107.65457543281121,1379.4871794871794
1650546442251.729,107.65457543281121,1417.5824175824175
1650546442252.756,107.65457543281121,1463.003663003663
1650546442252.916,107.65457543281121,1512.8205128205127
1650546442253.9302,107.65457543281121,1563.3699633699632
1650546442262.5671,107.71377508935937,1610.989010989011
1650546442292.5872,107.59544081296347,1654.9450549450548
1650546442297.621,107.65457543281121,1696.7032967032967
1650546442297.909,107.71377508935937,1729.6703296703295
1650546442315.0781,107.65457543281121,1754.5787545787546
1650546442321.292,107.65457543281121,1769.9633699633698
1650546442321.507,107.59544081296347,1775.091575091575
1650546442322.583,107.65457543281121,1768.4981684981683
1650546442323.794,107.65457543281121,1753.8461538461538
1650546442352.001,107.59544081296347,1733.3333333333333
1650546442352.167,107.65457543281121,1701.8315018315018
1650546442352.215,107.65457543281121,1668.131868131868
1650546442373.74,107.71377508935937,1629.3040293040292
1650546442374.824,107.65457543281121,1590.4761904761904
1650546442374.9238,107.65457543281121,1552.3809523809523
1650546442376.456,107.65457543281121,1515.7509157509157
1650546442385.008,107.65457543281121,1482.051282051282
1650546442413.604,107.71377508935937,1457.142857142857
1650546442413.798,107.59544081296347,1442.4908424908424
1650546442414.919,107.71377508935937,1431.5018315018315
1650546442432.424,107.65457543281121,1426.3736263736262
1650546442433.602,107.71377508935937,1423.4432234432234
1650546442433.7239,107.65457543281121,1422.7106227106226
1650546442434.8481,107.65457543281121,1419.047619047619
1650546442462.426,107.65457543281121,1416.117216117216
1650546442463.657,107.71377508935937,1413.1868131868132
1650546442494.3408,107.65457543281121,1413.1868131868132
1650546442494.7458,107.71377508935937,1416.117216117216
1650546442494.882,107.65457543281121,1419.047619047619
1650546442496.013,107.71377508935937,1421.245421245421
1650546442496.136,107.71377508935937,1424.1758241758241
1650546442497.36,107.71377508935937,1428.5714285714284
1650546442529.894,107.65457543281121,1433.6996336996335
1650546442551.2322,107.77303988995874,1438.8278388278388
1650546442552.25,107.65457543281121,1446.153846153846
1650546442552.4531,107.71377508935937,1453.4798534798533
1650546442557.648,107.71377508935937,1463.7362637362637
1650546442557.98,107.71377508935937,1476.923076923077
1650546442558.023,107.71377508935937,1490.10989010989
1650546442563.6448,107.65457543281121,1499.6336996336995
1650546442588.561,107.71377508935937,1505.4945054945053
1650546442589.862,107.71377508935937,1508.4249084249084
1650546442613.627,107.71377508935937,1506.227106227106
1650546442613.89,107.71377508935937,1501.8315018315018
1650546442614.834,107.65457543281121,1494.5054945054944
1650546442616.015,107.71377508935937,1482.7838827838827
1650546442616.208,107.71377508935937,1469.5970695970695
1650546442642.349,107.71377508935937,1454.9450549450548
1650546442643.485,107.71377508935937,1440.2930402930401
1650546442669.752,107.77303988995874,1427.106227106227
1650546442670.891,107.71377508935937,1416.8498168498168
1650546442670.97,107.71377508935937,1406.5934065934066
1650546442679.918,107.77303988995874,1395.6043956043954
1650546442680.9338,107.77303988995874,1385.3479853479853
1650546442681.115,107.65457543281121,1377.2893772893772
1650546442687.259,107.71377508935937,1367.7655677655678
1650546442727.194,107.77303988995874,1360.4395604395604
1650546442728.393,107.77303988995874,1354.5787545787546
1650546442728.576,107.77303988995874,1351.6483516483515
1650546442728.608,107.71377508935937,1349.4505494505493
1650546442731.077,107.77303988995874,1345.054945054945
1650546442739.643,107.77303988995874,1341.3919413919414
1650546442739.829,107.71377508935937,1336.9963369963368
1650546442764.7651,107.77303988995874,1332.6007326007325
1650546442769.557,107.77303988995874,1328.937728937729
1650546442792.1929,107.77303988995874,1326.7399267399267
1650546442792.478,107.71377508935937,1326.007326007326
1650546442793.515,107.77303988995874,1326.7399267399267
1650546442794.9941,107.77303988995874,1330.4029304029302
1650546442803.326,107.77303988995874,1334.065934065934
1650546442803.499,107.71377508935937,1339.194139194139
1650546442829.477,107.77303988995874,1342.1245421245421
1650546442829.887,107.77303988995874,1345.7875457875457
1650546442852.206,107.77303988995874,1347.985347985348
1650546442853.2441,107.77303988995874,1348.7179487179487
1650546442853.331,107.71377508935937,1349.4505494505493
1650546442854.78,107.83236994219654,1349.4505494505493
1650546442883.2559,107.77303988995874,1350.9157509157508
1650546442883.442,107.77303988995874,1353.113553113553
1650546442884.584,107.71377508935937,1353.8461538461538
1650546442910.98,107.77303988995874,1353.8461538461538
1650546442912.045,107.77303988995874,1351.6483516483515
1650546442912.2952,107.77303988995874,1347.2527472527472
1650546442920.9548,107.77303988995874,1341.3919413919414
1650546442922.07,107.83236994219654,1336.263736263736
1650546442923.227,107.83236994219654,1330.4029304029302
1650546442923.38,107.77303988995874,1326.007326007326
1650546442961.237,107.83236994219654,1320.8791208791208
1650546442962.117,107.77303988995874,1316.4835164835165
1650546442970.8518,107.83236994219654,1314.2857142857142
1650546442972.062,107.71377508935937,1313.5531135531135
1650546442972.342,107.77303988995874,1313.5531135531135
1650546442978.3872,107.83236994219654,1315.018315018315
1650546443009.588,107.71377508935937,1317.216117216117
1650546443009.736,107.77303988995874,1313.5531135531135
1650546443009.787,107.83236994219654,1309.89010989011
1650546443032.068,107.83236994219654,1307.6923076923076
1650546443033.144,107.83236994219654,1306.9597069597069
1650546443033.31,107.77303988995874,1306.227106227106
1650546443034.517,107.83236994219654,1303.2967032967033
1650546443043.4402,107.83236994219654,1299.6336996336995
1650546443069.5232,107.77303988995874,1295.2380952380952
1650546443069.948,107.77303988995874,1294.5054945054944
1650546443070.8398,107.83236994219654,1294.5054945054944
1650546443095.834,107.83236994219654,1294.5054945054944
1650546443096.9492,107.83236994219654,1295.2380952380952
1650546443098.574,107.77303988995874,1296.7032967032967
1650546443098.799,107.83236994219654,1296.7032967032967
1650546443104.492,107.83236994219654,1296.7032967032967
1650546443133.1921,107.77303988995874,1297.4358974358975
1650546443133.383,107.77303988995874,1296.7032967032967
1650546443134.529,107.77303988995874,1298.9010989010987
1650546443158.246,107.83236994219654,1301.098901098901
1650546443159.32,107.891765353897,1303.2967032967033
1650546443159.467,107.83236994219654,1303.2967032967033
1650546443160.702,107.83236994219654,1301.8315018315018
1650546443166.985,107.83236994219654,1300.3663003663003
1650546443194.294,107.77303988995874,1299.6336996336995
1650546443194.4421,107.83236994219654,1299.6336996336995
1650546443195.69,107.83236994219654,1299.6336996336995
1650546443217.02,107.83236994219654,1301.8315018315018
1650546443218.122,107.83236994219654,1303.2967032967033
1650546443219.5288,107.83236994219654,1306.227106227106
1650546443219.79,107.83236994219654,1309.89010989011
1650546443248.354,107.891765353897,1314.2857142857142
1650546443249.248,107.83236994219654,1317.9487179487178
1650546443249.46,107.83236994219654,1323.8095238095236
1650546443274.446,107.83236994219654,1333.3333333333333
1650546443275.6938,107.891765353897,1345.7875457875457
1650546443276.747,107.891765353897,1363.3699633699632
1650546443276.95,107.891765353897,1389.0109890109889
1650546443278.9568,107.891765353897,1421.9780219780218
1650546443311.8032,107.83236994219654,1462.2710622710622
1650546443312.9438,107.95122623312207,1505.4945054945053
1650546443313.0889,107.83236994219654,1553.113553113553
1650546443331.815,107.891765353897,1600.0
1650546443333.029,107.891765353897,1645.4212454212452
1650546443334.165,107.891765353897,1685.7142857142856
1650546443334.292,107.83236994219654,1719.4139194139193
1650546443362.07,107.83236994219654,1746.5201465201465
1650546443363.054,107.95122623312207,1761.9047619047617
1650546443391.6619,107.891765353897,1767.032967032967
1650546443391.8071,107.891765353897,1759.7069597069597
1650546443392.978,107.891765353897,1742.124542124542
1650546443396.765,107.891765353897,1715.7509157509157
1650546443398.026,107.891765353897,1684.9816849816848
1650546443409.662,107.891765353897,1652.7472527472526
1650546443409.931,107.891765353897,1616.8498168498168
1650546443431.866,107.891765353897,1581.6849816849815
1650546443432.861,107.95122623312207,1547.2527472527472
1650546443433.031,107.891765353897,1515.7509157509157
1650546443459.32,107.891765353897,1484.9816849816848
1650546443460.5999,107.77303988995874,1460.8058608058607
1650546443461.8298,107.891765353897,1441.7582417582416
1650546443487.8708,107.891765353897,1427.8388278388277
1650546443488.017,107.891765353897,1418.3150183150183
1650546443489.169,107.891765353897,1413.9194139194137
1650546443510.49,107.95122623312207,1409.5238095238094
1650546443510.757,107.891765353897,1407.3260073260071
1650546443511.889,107.891765353897,1405.128205128205
1650546443525.38,107.891765353897,1405.8608058608058
1650546443525.713,107.95122623312207,1406.5934065934066
1650546443552.922,107.891765353897,1405.8608058608058
1650546443554.064,107.95122623312207,1405.128205128205
1650546443572.813,107.83236994219654,1405.8608058608058
1650546443572.9739,107.95122623312207,1404.3956043956043
1650546443576.246,107.95122623312207,1406.5934065934066
1650546443576.3992,107.95122623312207,1410.2564102564102
1650546443576.62,107.95122623312207,1415.3846153846152
1650546443582.867,107.95122623312207,1419.047619047619
1650546443611.584,107.891765353897,1424.9084249084249
1650546443611.8218,108.01075268817205,1431.5018315018315
1650546443613.511,107.95122623312207,1440.2930402930401
1650546443631.591,107.95122623312207,1448.3516483516482
1650546443631.9211,107.891765353897,1454.9450549450548
1650546443632.815,107.95122623312207,1457.8754578754579
1650546443634.0588,107.95122623312207,1458.6080586080584
1650546443661.5579,107.95122623312207,1455.6776556776556
1650546443661.724,107.891765353897,1450.5494505494505
1650546443661.784,108.01075268817205,1443.2234432234432
1650546443687.856,108.01075268817205,1435.8974358974358
1650546443688.952,108.01075268817205,1426.3736263736262
1650546443689.168,107.95122623312207,1416.117216117216
1650546443694.149,107.95122623312207,1404.3956043956043
1650546443695.281,108.01075268817205,1392.6739926739926
1650546443720.367,107.95122623312207,1383.8827838827838
1650546443721.3882,107.891765353897,1377.2893772893772
1650546443721.589,107.95122623312207,1369.230769230769
1650546443750.268,108.01075268817205,1361.904761904762
1650546443751.3882,107.891765353897,1356.7765567765566
1650546443751.535,107.95122623312207,1351.6483516483515
1650546443759.0671,107.95122623312207,1347.985347985348
1650546443760.232,108.01075268817205,1342.8571428571427
1650546443788.852,107.95122623312207,1338.4615384615383
1650546443788.98,107.95122623312207,1337.7289377289376
1650546443790.189,107.95122623312207,1336.263736263736
1650546443811.513,108.01075268817205,1334.7985347985348
1650546443812.549,108.01075268817205,1333.3333333333333
1650546443812.6619,107.95122623312207,1332.6007326007325
1650546443813.938,108.01075268817205,1330.4029304029302
1650546443825.299,108.01075268817205,1327.4725274725274
1650546443852.681,107.95122623312207,1326.007326007326
1650546443852.905,107.95122623312207,1323.076923076923
1650546443852.947,107.95122623312207,1323.076923076923
1650546443853.895,108.01075268817205,1323.8095238095236
1650546443872.538,108.01075268817205,1325.2747252747251
1650546443872.678,108.01075268817205,1326.007326007326
1650546443873.948,108.01075268817205,1324.5421245421244
1650546443900.1328,108.01075268817205,1321.6117216117216
1650546443900.5762,108.01075268817205,1319.4139194139193
1650546443900.654,107.95122623312207,1320.14652014652
1650546443925.2761,108.01075268817205,1320.14652014652
1650546443926.362,107.95122623312207,1323.076923076923
1650546443933.761,108.01075268817205,1325.2747252747251
1650546443933.969,108.01075268817205,1328.937728937729
1650546443935.105,108.01075268817205,1329.6703296703297
1650546443966.52,108.01075268817205,1328.937728937729
1650546443967.488,108.01075268817205,1328.2051282051282
1650546443967.743,108.01075268817205,1327.4725274725274
1650546443993.8381,108.01075268817205,1325.2747252747251
1650546443995.073,108.07034482758621,1321.6117216117216
1650546444002.517,108.01075268817205,1317.216117216117
1650546444002.73,107.95122623312207,1312.8205128205127
1650546444003.9202,108.01075268817205,1309.1575091575091
1650546444005.152,107.95122623312207,1305.4945054945053
1650546444031.345,108.01075268817205,1304.0293040293038
1650546444032.5552,107.95122623312207,1303.2967032967033
1650546444032.754,108.01075268817205,1304.0293040293038
1650546444047.52,108.01075268817205,1303.2967032967033
1650546444048.6838,108.01075268817205,1301.098901098901
1650546444048.806,107.95122623312207,1296.7032967032967
1650546444062.856,108.01075268817205,1290.8424908424909
1650546444090.053,107.95122623312207,1287.179487179487
1650546444091.241,108.07034482758621,1287.179487179487
