Timestamp,GSR,PPG
1650546051653.332,161.86725663716814,0.0
1650546051654.4248,161.86725663716814,0.0
1650546051661.916,161.86725663716814,0.0
1650546051662.941,161.86725663716814,0.0
1650546051676.594,161.86725663716814,0.0
1650546051676.761,161.86725663716814,0.0
1650546051685.606,161.86725663716814,0.0
1650546051711.604,161.86725663716814,0.0
1650546051711.802,169.66435686444345,0.0
1650546051735.313,169.51752488100388,0.0
1650546051735.486,169.37094682230867,0.0
1650546051737.8508,169.51752488100388,0.0
1650546051737.973,169.51752488100388,0.0
1650546051739.213,169.37094682230867,0.0
1650546051748.022,169.37094682230867,0.0
1650546051774.044,169.37094682230867,0.0
1650546051774.168,169.37094682230867,0.0
1650546051775.38,169.22462203023755,0.0
1650546051796.756,169.22462203023755,0.0
1650546051797.951,169.22462203023755,0.0
1650546051798.1,169.37094682230867,0.0
1650546051799.2092,169.22462203023755,0.0
1650546051829.171,169.07854984894257,0.0
1650546051830.205,169.22462203023755,0.0
1650546051854.035,169.22462203023755,0.0
1650546051854.226,169.07854984894257,0.0
1650546051855.397,169.07854984894257,0.0
1650546051856.598,169.07854984894257,0.0
1650546051862.7888,169.07854984894257,0.0
1650546051862.965,168.9327296248383,0.0
1650546051887.8901,169.07854984894257,0.0
1650546051888.978,169.07854984894257,0.0
1650546051911.629,169.07854984894257,0.0
1650546051911.86,169.07854984894257,0.0
1650546051912.874,168.9327296248383,0.0
1650546051914.232,168.9327296248383,0.0
1650546051927.8901,168.9327296248383,0.0
1650546051928.119,168.78716070659198,0.0
1650546051952.861,168.9327296248383,0.0
1650546051979.28,168.9327296248383,0.0
1650546051980.289,168.9327296248383,0.0
1650546051980.525,168.78716070659198,0.0
1650546051985.357,168.78716070659198,0.0
1650546051986.563,168.64184244511407,0.0
1650546051987.746,168.64184244511407,0.0
1650546051987.8909,168.64184244511407,0.0
1650546052017.953,168.49677419354836,0.0
1650546052018.989,168.49677419354836,0.0
1650546052037.7852,168.64184244511407,0.0
1650546052037.909,168.49677419354836,0.0
1650546052039.0361,168.35195530726256,0.0
1650546052040.178,168.49677419354836,0.0
1650546052040.356,168.64184244511407,0.0
1650546052066.7642,168.35195530726256,0.0
1650546052067.782,168.49677419354836,0.0
1650546052096.4949,168.49677419354836,0.0
1650546052097.698,168.64184244511407,0.0
1650546052097.852,168.49677419354836,0.0
1650546052099.094,168.35195530726256,0.0
1650546052100.33,168.49677419354836,0.0
1650546052126.497,168.49677419354836,0.0
1650546052126.748,168.35195530726256,0.0
1650546052127.754,168.35195530726256,0.0
1650546052155.131,168.35195530726256,0.0
1650546052161.3628,168.35195530726256,0.0
1650546052161.531,168.20738514383854,0.0
1650546052162.7668,168.20738514383854,0.0
1650546052163.9768,168.35195530726256,0.0
1650546052191.484,168.20738514383854,0.0
1650546052191.647,168.20738514383854,0.0
1650546052216.395,168.20738514383854,0.0
1650546052216.5862,168.20738514383854,0.0
1650546052216.713,168.20738514383854,0.0
1650546052217.699,168.20738514383854,0.0
1650546052218.949,168.20738514383854,0.0
1650546052227.833,168.20738514383854,0.0
1650546052255.117,168.06306306306305,0.0
1650546052255.3,168.06306306306305,0.0
1650546052256.4558,168.06306306306305,0.0
1650546052274.087,168.20738514383854,0.0
1650546052276.3318,168.20738514383854,0.0
1650546052276.5342,167.9189884269181,0.0
1650546052277.668,168.06306306306305,0.0
1650546052303.967,168.06306306306305,0.0
1650546052305.1099,168.06306306306305,0.0
1650546052305.332,168.06306306306305,0.0
1650546052333.929,168.06306306306305,0.0
1650546052335.1592,167.9189884269181,0.0
1650546052337.668,167.9189884269181,0.0
1650546052337.94,167.9189884269181,0.0
1650546052338.9749,167.9189884269181,0.0
1650546052365.167,167.77516059957173,0.0
1650546052366.303,168.06306306306305,0.0
1650546052366.511,168.06306306306305,0.0
1650546052395.283,167.9189884269181,0.0
1650546052396.457,167.9189884269181,0.0
1650546052398.7551,167.9189884269181,0.0
1650546052398.927,167.9189884269181,0.0
1650546052407.654,167.9189884269181,0.0
1650546052432.8179,167.77516059957173,0.0
1650546052434.228,168.06306306306305,0.0
1650546052434.546,167.77516059957173,0.0
1650546052460.106,167.9189884269181,0.0
1650546052461.336,167.9189884269181,0.0
1650546052463.686,167.9189884269181,0.0
1650546052463.8418,167.9189884269181,0.0
1650546052465.074,167.9189884269181,0.0
1650546052490.266,167.77516059957173,0.0
1650546052491.395,167.9189884269181,0.0
1650546052491.707,167.9189884269181,0.0
1650546052520.07,167.77516059957173,0.0
1650546052521.193,167.77516059957173,0.0
1650546052522.5579,167.77516059957173,0.0
1650546052522.733,167.77516059957173,0.0
1650546052551.3142,167.9189884269181,0.0
1650546052552.542,167.6315789473684,0.0
1650546052576.191,167.9189884269181,0.0
1650546052576.425,167.77516059957173,0.0
1650546052577.7258,167.9189884269181,0.0
1650546052580.126,167.77516059957173,0.0
1650546052582.4932,167.9189884269181,0.0
1650546052582.648,167.77516059957173,0.0
1650546052611.288,167.77516059957173,0.0
1650546052612.4949,167.9189884269181,0.0
1650546052631.155,167.9189884269181,0.0
1650546052631.331,167.9189884269181,0.0
1650546052632.497,167.77516059957173,0.0
1650546052633.62,167.77516059957173,0.0
1650546052647.4421,167.9189884269181,0.0
1650546052647.5989,167.77516059957173,0.0
1650546052677.5178,167.9189884269181,0.0
1650546052678.612,167.77516059957173,0.0
1650546052678.766,167.9189884269181,0.0
1650546052695.017,167.77516059957173,0.0
1650546052696.2139,167.77516059957173,0.0
1650546052697.3828,167.77516059957173,0.0
1650546052722.52,167.9189884269181,0.0
1650546052722.687,167.77516059957173,0.0
1650546052723.728,167.77516059957173,0.0
1650546052748.6091,167.77516059957173,0.7326007326007326
1650546052748.802,167.9189884269181,0.0
1650546052749.948,167.77516059957173,0.0
1650546052756.229,167.77516059957173,0.0
1650546052757.405,167.77516059957173,0.0
1650546052757.641,167.77516059957173,0.0
1650546052784.938,167.77516059957173,0.0
1650546052786.1719,167.77516059957173,0.0
1650546052813.577,167.9189884269181,0.0
1650546052813.745,167.77516059957173,0.0
1650546052814.907,167.77516059957173,0.0
1650546052821.203,167.77516059957173,0.0
1650546052822.4111,167.77516059957173,0.0
1650546052851.206,167.77516059957173,0.0
1650546052851.406,167.6315789473684,0.0
1650546052852.473,167.77516059957173,0.0
1650546052874.804,167.9189884269181,0.0
1650546052874.99,167.9189884269181,0.0
1650546052876.136,167.77516059957173,0.0
1650546052877.377,167.77516059957173,0.0
1650546052883.519,167.77516059957173,0.0
1650546052908.56,167.9189884269181,0.0
1650546052908.7852,167.77516059957173,0.0
1650546052910.007,167.77516059957173,0.0
1650546052936.054,167.77516059957173,0.0
1650546052936.369,167.9189884269181,0.0
1650546052937.381,167.77516059957173,0.0
1650546052938.681,167.77516059957173,0.0
1650546052947.306,167.77516059957173,0.0
1650546052947.457,167.77516059957173,0.0
1650546052977.3618,167.77516059957173,0.0
1650546052978.696,167.77516059957173,0.0
1650546052993.676,167.77516059957173,0.0
1650546052993.9011,167.77516059957173,0.0
1650546052994.183,167.77516059957173,0.0
1650546052994.975,167.6315789473684,0.0
1650546053008.497,167.77516059957173,0.0
1650546053034.8042,167.9189884269181,0.0
1650546053035.069,167.77516059957173,0.0
1650546053036.126,167.77516059957173,0.0
1650546053057.282,167.77516059957173,0.0
1650546053057.481,167.77516059957173,0.0
1650546053058.551,167.77516059957173,0.0
1650546053059.784,167.77516059957173,0.0
1650546053088.495,167.77516059957173,0.0
1650546053088.6892,167.9189884269181,0.0
1650546053089.777,167.77516059957173,0.0
1650546053116.123,167.77516059957173,0.0
1650546053117.237,167.77516059957173,0.0
1650546053118.422,167.9189884269181,0.0
1650546053118.632,167.77516059957173,0.0
1650546053119.804,167.6315789473684,0.0
1650546053145.916,167.6315789473684,0.0
1650546053147.1938,167.9189884269181,0.0
1650546053147.35,167.9189884269181,0.0
1650546053173.7239,167.77516059957173,0.0
1650546053174.732,167.77516059957173,0.0
1650546053175.834,167.77516059957173,0.0
1650546053175.903,167.9189884269181,0.0
1650546053189.794,167.77516059957173,0.0
1650546053214.598,167.9189884269181,0.0
1650546053214.714,167.9189884269181,0.0
1650546053215.964,167.77516059957173,0.0
1650546053237.226,167.77516059957173,0.0
1650546053238.351,167.9189884269181,0.0
1650546053239.561,167.9189884269181,0.0
1650546053239.6519,167.9189884269181,0.0
1650546053274.704,167.9189884269181,0.0
1650546053275.808,167.9189884269181,0.0
1650546053275.9558,167.9189884269181,0.0
1650546053299.721,167.9189884269181,0.0
1650546053300.938,167.9189884269181,0.0
1650546053302.14,168.06306306306305,0.0
1650546053303.2761,167.9189884269181,0.0
1650546053303.4019,167.9189884269181,0.0
1650546053328.42,167.9189884269181,0.0
1650546053329.559,167.77516059957173,0.0
1650546053329.723,168.06306306306305,0.0
1650546053352.188,167.9189884269181,0.0
1650546053353.38,167.9189884269181,0.0
1650546053354.552,168.06306306306305,0.0
1650546053363.416,168.06306306306305,0.0
1650546053363.57,167.77516059957173,0.0
1650546053389.693,168.06306306306305,0.0
1650546053390.82,168.06306306306305,0.0
1650546053390.945,168.06306306306305,0.0
1650546053418.3901,167.9189884269181,0.0
1650546053419.6729,168.06306306306305,0.0
1650546053420.742,168.06306306306305,0.0
1650546053420.849,168.06306306306305,0.0
1650546053422.147,167.9189884269181,0.0
1650546053448.3281,168.06306306306305,0.0
1650546053449.463,168.06306306306305,0.0
1650546053474.585,168.20738514383854,0.0
1650546053474.739,168.06306306306305,0.0
1650546053475.8179,168.06306306306305,0.0
1650546053487.108,168.06306306306305,0.0
1650546053488.228,168.06306306306305,0.0
1650546053488.401,168.06306306306305,0.0
1650546053513.346,168.06306306306305,0.0
1650546053514.425,168.20738514383854,0.0
1650546053514.552,168.20738514383854,0.0
1650546053534.814,168.06306306306305,0.0
1650546053535.918,168.06306306306305,0.0
1650546053537.042,168.20738514383854,0.0
1650546053537.231,168.20738514383854,0.0
1650546053567.1301,168.06306306306305,0.0
1650546053568.439,168.20738514383854,0.0
1650546053594.774,168.06306306306305,0.0
1650546053599.562,168.06306306306305,0.0
1650546053599.731,168.06306306306305,0.0
1650546053600.761,168.06306306306305,0.0
1650546053602.019,168.20738514383854,0.0
1650546053629.4329,168.20738514383854,0.0
1650546053629.668,168.06306306306305,0.0
1650546053630.832,168.06306306306305,0.0
1650546053655.828,168.20738514383854,0.0
1650546053658.4858,168.20738514383854,0.0
1650546053658.71,168.06306306306305,0.0
1650546053659.505,168.06306306306305,0.0
1650546053660.712,168.20738514383854,0.0
1650546053687.0552,168.06306306306305,0.0
1650546053687.298,168.20738514383854,0.0
1650546053688.694,168.06306306306305,0.0
1650546053714.534,168.06306306306305,0.0
1650546053720.012,168.20738514383854,0.0
1650546053720.23,168.06306306306305,0.0
1650546053720.273,168.20738514383854,0.0
1650546053743.4558,168.06306306306305,0.0
1650546053744.301,168.06306306306305,0.0
1650546053744.3608,168.06306306306305,0.0
1650546053770.742,168.06306306306305,0.0
1650546053771.914,168.20738514383854,0.0
1650546053774.4739,168.20738514383854,0.0
1650546053774.606,168.06306306306305,0.0
1650546053780.7368,168.06306306306305,0.0
1650546053805.809,168.06306306306305,0.0
1650546053806.886,168.20738514383854,0.0
1650546053807.037,168.06306306306305,0.0
1650546053834.427,168.06306306306305,0.0
1650546053835.512,168.06306306306305,0.0
1650546053835.618,168.06306306306305,0.0
1650546053841.992,168.06306306306305,0.0
1650546053868.254,168.06306306306305,0.0
1650546053869.761,168.06306306306305,0.0
1650546053894.377,168.06306306306305,0.0
1650546053894.639,168.06306306306305,0.0
1650546053895.669,168.06306306306305,0.0
1650546053896.821,168.20738514383854,0.0
1650546053898.143,168.20738514383854,0.0
1650546053898.275,168.20738514383854,0.0
1650546053904.5562,168.06306306306305,0.0
1650546053931.967,167.9189884269181,0.7326007326007326
1650546053932.99,168.06306306306305,0.0
1650546053933.146,167.9189884269181,0.0
1650546053958.122,168.06306306306305,0.0
1650546053959.334,168.06306306306305,0.0
1650546053961.8772,168.06306306306305,0.0
1650546053962.099,167.9189884269181,0.0
1650546053963.099,167.9189884269181,0.0
1650546053989.418,167.9189884269181,0.0
1650546053990.4038,168.06306306306305,0.0
1650546053990.487,168.06306306306305,0.0
1650546054015.613,168.06306306306305,0.0
1650546054016.7898,167.9189884269181,0.0
1650546054019.4211,168.06306306306305,0.0
1650546054019.697,167.9189884269181,0.0
1650546054049.4722,167.9189884269181,0.0
1650546054050.4402,168.20738514383854,0.0
1650546054075.891,168.06306306306305,0.0
1650546054076.0579,168.06306306306305,0.0
1650546054076.774,168.06306306306305,0.0
1650546054081.63,168.06306306306305,0.0
1650546054081.934,168.20738514383854,0.0
1650546054083.15,168.06306306306305,0.0
1650546054110.726,168.06306306306305,0.0
1650546054111.803,168.06306306306305,0.0
1650546054112.002,168.20738514383854,0.0
1650546054130.19,168.06306306306305,0.0
1650546054130.841,167.9189884269181,0.0
1650546054139.198,168.06306306306305,0.0
1650546054140.47,168.06306306306305,0.0
1650546054140.656,167.9189884269181,0.0
1650546054171.723,167.9189884269181,0.0
1650546054173.076,168.06306306306305,0.0
1650546054195.405,168.06306306306305,0.0
1650546054195.616,168.06306306306305,0.0
1650546054196.76,168.06306306306305,0.0
1650546054197.979,168.06306306306305,0.0
1650546054207.999,168.06306306306305,0.0
1650546054208.133,167.9189884269181,0.0
1650546054240.586,167.9189884269181,0.0
1650546054241.68,168.06306306306305,0.0
1650546054241.8872,168.06306306306305,0.0
1650546054249.3132,168.06306306306305,0.0
1650546054250.418,167.9189884269181,0.0
1650546054259.1802,167.9189884269181,0.0
1650546054259.445,168.06306306306305,0.0
1650546054267.988,167.9189884269181,0.0
1650546054292.915,168.06306306306305,0.0
1650546054294.086,168.06306306306305,0.0
1650546054294.2432,168.06306306306305,0.0
1650546054314.3,167.9189884269181,0.0
1650546054315.37,168.06306306306305,0.0
1650546054316.601,168.06306306306305,0.0
1650546054346.823,168.06306306306305,0.0
1650546054347.093,167.9189884269181,0.0
1650546054347.877,168.06306306306305,0.0
1650546054376.6128,167.9189884269181,0.0
1650546054376.739,168.06306306306305,0.0
1650546054377.909,167.9189884269181,0.0
1650546054379.104,167.9189884269181,0.0
1650546054380.271,167.9189884269181,38.827838827838825
1650546054405.49,167.9189884269181,174.35897435897434
1650546054405.745,167.77516059957173,340.6593406593406
1650546054406.55,167.9189884269181,515.7509157509157
1650546054432.058,167.9189884269181,684.9816849816849
1650546054432.781,167.77516059957173,843.2234432234432
1650546054433.042,167.77516059957173,990.4761904761904
1650546054439.092,167.77516059957173,1120.8791208791208
1650546054444.205,167.77516059957173,1235.8974358974358
1650546054470.349,167.77516059957173,1335.5311355311355
1650546054470.5269,167.77516059957173,1421.245421245421
1650546054495.32,167.77516059957173,1494.5054945054944
1650546054496.52,167.77516059957173,1555.311355311355
1650546054497.762,167.9189884269181,1608.058608058608
1650546054497.88,167.6315789473684,1652.7472527472526
1650546054499.0388,167.6315789473684,1685.7142857142856
1650546054507.7668,167.77516059957173,1706.227106227106
1650546054508.012,167.6315789473684,1716.4835164835163
1650546054542.8381,167.6315789473684,1716.4835164835163
1650546054544.02,167.6315789473684,1705.4945054945053
1650546054555.257,167.6315789473684,1687.179487179487
1650546054555.372,167.77516059957173,1664.4688644688645
1650546054556.52,167.77516059957173,1638.095238095238
1650546054565.489,167.77516059957173,1606.5934065934066
1650546054600.3162,167.77516059957173,1571.4285714285713
1650546054601.8938,167.77516059957173,1535.5311355311355
1650546054602.134,167.6315789473684,1502.5641025641025
1650546054612.8608,167.77516059957173,1474.7252747252746
1650546054614.038,167.77516059957173,1449.084249084249
1650546054615.159,167.77516059957173,1426.3736263736262
1650546054615.371,167.6315789473684,1405.128205128205
1650546054621.614,167.6315789473684,1385.3479853479853
1650546054653.887,167.6315789473684,1368.4981684981683
1650546054653.9968,167.77516059957173,1353.8461538461538
1650546054655.271,167.77516059957173,1342.8571428571427
1650546054670.22,167.6315789473684,1334.7985347985348
1650546054671.437,167.77516059957173,1328.2051282051282
1650546054671.569,167.77516059957173,1327.4725274725274
1650546054672.791,167.6315789473684,1328.937728937729
1650546054686.678,167.6315789473684,1331.8681318681317
1650546054712.566,167.77516059957173,1336.263736263736
1650546054713.95,167.77516059957173,1344.3223443223442
1650546054714.168,167.6315789473684,1353.8461538461538
1650546054734.035,167.6315789473684,1362.6373626373625
1650546054735.1511,167.77516059957173,1372.8937728937728
1650546054736.322,167.77516059957173,1386.080586080586
1650546054736.4321,167.6315789473684,1400.7326007326005
1650546054762.723,167.6315789473684,1413.1868131868132
1650546054763.877,167.77516059957173,1423.4432234432234
1650546054794.1238,167.77516059957173,1430.03663003663
1650546054794.333,167.6315789473684,1434.4322344322343
1650546054795.1602,167.6315789473684,1436.6300366300366
1650546054796.385,167.6315789473684,1435.164835164835
1650546054797.939,167.77516059957173,1430.03663003663
1650546054798.158,167.6315789473684,1424.9084249084249
1650546054823.907,167.6315789473684,1416.8498168498168
1650546054825.0789,167.77516059957173,1407.3260073260071
1650546054851.331,167.77516059957173,1397.069597069597
1650546054851.5662,167.48824283881999,1386.080586080586
1650546054857.76,167.77516059957173,1370.6959706959706
1650546054858.907,167.77516059957173,1359.7069597069597
1650546054860.01,167.6315789473684,1349.4505494505493
1650546054860.1338,167.6315789473684,1339.194139194139
1650546054887.66,167.48824283881999,1330.4029304029302
1650546054888.691,167.6315789473684,1322.3443223443223
1650546054913.969,167.6315789473684,1315.018315018315
1650546054914.313,167.48824283881999,1309.1575091575091
1650546054915.144,167.6315789473684,1306.227106227106
1650546054916.345,167.6315789473684,1304.7619047619046
1650546054924.9429,167.6315789473684,1303.2967032967033
1650546054925.08,167.48824283881999,1301.098901098901
1650546054953.845,167.6315789473684,1295.2380952380952
1650546054955.013,167.48824283881999,1289.3772893772893
1650546054972.5608,167.6315789473684,1282.7838827838827
1650546054972.734,167.48824283881999,1279.120879120879
1650546054978.838,167.48824283881999,1276.1904761904761
1650546054979.126,167.6315789473684,1273.9926739926739
1650546054979.1912,167.6315789473684,1272.5274725274724
1650546054987.5059,167.48824283881999,1268.8644688644688
1650546055012.6418,167.6315789473684,1265.9340659340658
1650546055013.708,167.6315789473684,1263.003663003663
1650546055034.034,167.6315789473684,1257.142857142857
1650546055034.23,167.48824283881999,1252.7472527472526
1650546055037.656,167.48824283881999,1249.084249084249
1650546055037.8772,167.6315789473684,1247.6190476190475
1650546055068.727,167.48824283881999,1246.153846153846
1650546055068.893,167.48824283881999,1246.153846153846
1650546055069.9512,167.6315789473684,1244.6886446886447
1650546055095.02,167.6315789473684,1242.4908424908424
1650546055096.383,167.6315789473684,1243.956043956044
1650546055096.514,167.48824283881999,1245.4212454212454
1650546055097.4172,167.6315789473684,1247.6190476190475
1650546055098.561,167.6315789473684,1253.4798534798533
1650546055098.657,167.6315789473684,1257.142857142857
1650546055128.779,167.48824283881999,1261.5384615384614
1650546055129.927,167.6315789473684,1263.003663003663
1650546055153.765,167.48824283881999,1265.2014652014652
1650546055154.9211,167.6315789473684,1265.9340659340658
1650546055155.043,167.48824283881999,1265.9340659340658
1650546055156.482,167.6315789473684,1260.8058608058607
1650546055182.415,167.6315789473684,1257.142857142857
1650546055183.4978,167.6315789473684,1253.4798534798533
1650546055183.5898,167.48824283881999,1249.8168498168498
1650546055215.012,167.6315789473684,1247.6190476190475
1650546055216.1282,167.6315789473684,1246.153846153846
1650546055217.9429,167.6315789473684,1244.6886446886447
1650546055218.3262,167.6315789473684,1244.6886446886447
1650546055218.7058,167.6315789473684,1243.956043956044
1650546055246.13,167.48824283881999,1245.4212454212454
1650546055247.316,167.48824283881999,1248.3516483516482
1650546055247.51,167.48824283881999,1251.2820512820513
1650546055276.84,167.48824283881999,1254.212454212454
1650546055277.206,167.6315789473684,1257.8754578754579
1650546055277.321,167.6315789473684,1257.8754578754579
1650546055277.354,167.48824283881999,1260.8058608058607
1650546055277.3818,167.6315789473684,1260.8058608058607
1650546055303.455,167.6315789473684,1260.8058608058607
1650546055303.573,167.6315789473684,1261.5384615384614
1650546055304.769,167.48824283881999,1260.07326007326
1650546055333.7441,167.6315789473684,1256.4102564102564
1650546055334.717,167.6315789473684,1254.9450549450548
1650546055336.126,167.6315789473684,1254.212454212454
1650546055336.326,167.6315789473684,1253.4798534798533
1650546055337.527,167.6315789473684,1251.2820512820513
1650546055366.167,167.48824283881999,1249.8168498168498
1650546055367.157,167.6315789473684,1247.6190476190475
1650546055367.321,167.6315789473684,1249.8168498168498
1650546055392.373,167.48824283881999,1255.6776556776556
1650546055393.62,167.6315789473684,1262.2710622710622
1650546055395.992,167.6315789473684,1276.1904761904761
1650546055396.142,167.48824283881999,1295.970695970696
1650546055404.876,167.6315789473684,1320.8791208791208
1650546055433.5452,167.48824283881999,1350.18315018315
1650546055433.844,167.6315789473684,1386.080586080586
1650546055434.967,167.48824283881999,1430.7692307692307
1650546055451.031,167.6315789473684,1479.120879120879
1650546055452.118,167.6315789473684,1526.7399267399267
1650546055452.232,167.3451516445963,1572.161172161172
1650546055453.492,167.6315789473684,1609.5238095238094
1650546055467.365,167.6315789473684,1641.7582417582416
1650546055492.208,167.6315789473684,1664.4688644688645
1650546055492.378,167.6315789473684,1678.3882783882782
1650546055493.5588,167.48824283881999,1684.9816849816848
1650546055514.848,167.6315789473684,1682.051282051282
1650546055515.9978,167.48824283881999,1670.3296703296703
1650546055517.384,167.6315789473684,1652.0146520146518
1650546055517.577,167.6315789473684,1631.5018315018315
1650546055542.208,167.6315789473684,1607.3260073260071
1650546055543.3682,167.6315789473684,1580.9523809523807
1650546055543.488,167.6315789473684,1551.6483516483515
1650546055569.722,167.6315789473684,1523.0769230769229
1650546055571.83,167.6315789473684,1494.5054945054944
1650546055583.873,167.6315789473684,1467.3992673992673
1650546055584.047,167.6315789473684,1443.956043956044
1650546055584.6519,167.6315789473684,1427.106227106227
1650546055610.987,167.6315789473684,1411.7216117216117
1650546055612.018,167.6315789473684,1402.197802197802
1650546055612.179,167.77516059957173,1394.139194139194
1650546055632.258,167.6315789473684,1387.5457875457876
1650546055633.3872,167.6315789473684,1380.952380952381
1650546055634.608,167.6315789473684,1375.8241758241757
1650546055645.589,167.77516059957173,1370.6959706959706
1650546055645.726,167.6315789473684,1365.5677655677655
1650546055674.8682,167.6315789473684,1361.1721611721612
1650546055675.783,167.6315789473684,1358.974358974359
1650546055675.915,167.77516059957173,1356.7765567765566
1650546055692.1821,167.6315789473684,1358.2417582417581
1650546055693.368,167.6315789473684,1361.1721611721612
1650546055694.4849,167.77516059957173,1365.5677655677655
1650546055708.3298,167.77516059957173,1369.9633699633698
1650546055708.476,167.6315789473684,1377.2893772893772
1650546055733.352,167.6315789473684,1383.8827838827838
1650546055734.498,167.6315789473684,1390.4761904761904
1650546055734.718,167.77516059957173,1394.8717948717947
1650546055753.405,167.6315789473684,1400.0
1650546055754.551,167.6315789473684,1401.4652014652013
1650546055755.765,167.77516059957173,1402.9304029304028
1650546055783.295,167.77516059957173,1402.9304029304028
1650546055783.4949,167.6315789473684,1402.197802197802
1650546055784.599,167.6315789473684,1398.5347985347985
1650546055812.095,167.6315789473684,1394.139194139194
1650546055813.149,167.6315789473684,1390.4761904761904
1650546055813.3098,167.6315789473684,1388.278388278388
1650546055814.519,167.6315789473684,1385.3479853479853
1650546055819.662,167.77516059957173,1381.6849816849815
1650546055853.842,167.77516059957173,1376.5567765567764
1650546055854.1182,167.6315789473684,1372.161172161172
1650546055854.1501,167.6315789473684,1367.032967032967
1650546055875.802,167.77516059957173,1361.1721611721612
1650546055876.027,167.77516059957173,1355.3113553113553
1650546055876.983,167.77516059957173,1349.4505494505493
1650546055878.2092,167.77516059957173,1343.5897435897434
1650546055909.529,167.77516059957173,1337.7289377289376
1650546055909.802,167.6315789473684,1332.6007326007325
1650546055909.956,167.6315789473684,1328.2051282051282
1650546055932.031,167.6315789473684,1323.076923076923
1650546055933.0571,167.77516059957173,1317.216117216117
1650546055933.1418,167.77516059957173,1312.8205128205127
1650546055934.429,167.77516059957173,1308.4249084249084
1650546055935.732,167.77516059957173,1302.5641025641025
1650546055963.144,167.77516059957173,1296.7032967032967
1650546055963.302,167.6315789473684,1293.7728937728937
1650546055964.4302,167.6315789473684,1290.8424908424909
1650546055989.5698,167.77516059957173,1286.4468864468863
1650546055990.665,167.77516059957173,1281.3186813186812
1650546055990.8372,167.77516059957173,1277.6556776556777
1650546055993.209,167.6315789473684,1276.923076923077
1650546055994.394,167.77516059957173,1276.1904761904761
1650546056008.061,167.77516059957173,1279.120879120879
1650546056034.3909,167.77516059957173,1279.8534798534797
1650546056034.624,167.77516059957173,1281.3186813186812
1650546056035.605,167.77516059957173,1283.5164835164835
1650546056054.462,167.9189884269181,1287.9120879120878
1650546056055.5068,167.77516059957173,1292.3076923076922
1650546056055.698,167.6315789473684,1296.7032967032967
1650546056056.877,167.77516059957173,1299.6336996336995
1650546056081.981,167.9189884269181,1303.2967032967033
1650546056083.001,167.9189884269181,1304.7619047619046
1650546056083.184,167.6315789473684,1304.7619047619046
1650546056109.4812,167.77516059957173,1304.7619047619046
1650546056110.613,167.6315789473684,1304.7619047619046
1650546056115.489,167.77516059957173,1303.2967032967033
1650546056115.624,167.77516059957173,1300.3663003663003
1650546056116.779,167.77516059957173,1294.5054945054944
1650546056145.6611,167.77516059957173,1289.3772893772893
1650546056171.735,167.77516059957173,1284.9816849816848
1650546056172.004,167.77516059957173,1281.3186813186812
1650546056173.084,167.9189884269181,1279.120879120879
1650546056179.3062,167.77516059957173,1277.6556776556777
1650546056180.54,167.9189884269181,1275.4578754578754
1650546056180.718,167.77516059957173,1273.260073260073
1650546056181.777,167.77516059957173,1270.3296703296703
1650546056208.02,167.77516059957173,1265.9340659340658
1650546056209.1191,167.9189884269181,1260.8058608058607
1650546056209.24,167.77516059957173,1257.142857142857
1650546056234.2961,167.9189884269181,1254.212454212454
1650546056235.514,167.77516059957173,1252.7472527472526
1650546056239.25,167.9189884269181,1249.8168498168498
1650546056239.472,167.77516059957173,1250.5494505494505
1650546056264.407,167.77516059957173,1250.5494505494505
1650546056292.9138,167.77516059957173,1250.5494505494505
1650546056293.0852,167.9189884269181,1249.8168498168498
1650546056294.2148,167.9189884269181,1250.5494505494505
1650546056295.5461,167.77516059957173,1252.014652014652
1650546056296.616,167.9189884269181,1254.212454212454
1650546056296.767,167.9189884269181,1257.142857142857
1650546056297.996,167.77516059957173,1259.3406593406592
1650546056324.23,167.9189884269181,1260.07326007326
1650546056325.386,167.9189884269181,1257.8754578754579
1650546056349.3782,168.06306306306305,1255.6776556776556
1650546056349.695,167.9189884269181,1252.7472527472526
1650546056350.476,167.77516059957173,1250.5494505494505
1650546056351.726,167.9189884269181,1250.5494505494505
1650546056365.341,167.9189884269181,1251.2820512820513
1650546056365.583,167.77516059957173,1251.2820512820513
1650546056366.699,167.77516059957173,1248.3516483516482
1650546056394.1482,167.9189884269181,1247.6190476190475
1650546056411.608,167.9189884269181,1247.6190476190475
1650546056411.745,167.77516059957173,1249.084249084249
1650546056412.844,167.9189884269181,1246.8864468864467
1650546056414.113,167.9189884269181,1246.153846153846
1650546056422.864,167.9189884269181,1246.153846153846
1650546056423.1228,167.9189884269181,1247.6190476190475
1650546056450.47,167.77516059957173,1253.4798534798533
1650546056452.064,167.9189884269181,1263.7362637362637
1650546056476.44,167.9189884269181,1281.3186813186812
1650546056476.603,167.6315789473684,1304.7619047619046
1650546056477.823,167.9189884269181,1331.8681318681317
1650546056479.157,167.9189884269181,1364.102564102564
1650546056503.991,167.9189884269181,1402.197802197802
1650546056504.124,167.9189884269181,1445.4212454212454
1650546056505.3599,167.9189884269181,1490.8424908424906
1650546056529.081,167.77516059957173,1539.194139194139
1650546056531.427,167.9189884269181,1586.8131868131868
1650546056531.54,167.9189884269181,1631.5018315018315
1650546056532.878,167.9189884269181,1670.3296703296703
1650546056534.099,167.9189884269181,1699.6336996336995
1650546056547.714,167.9189884269181,1720.14652014652
1650546056547.864,167.77516059957173,1730.4029304029302
1650546056572.9092,167.9189884269181,1728.2051282051282
1650546056575.0352,167.9189884269181,1715.7509157509157
1650546056590.389,168.06306306306305,1695.2380952380952
1650546056590.61,167.77516059957173,1669.5970695970695
1650546056591.513,167.9189884269181,1638.8278388278386
1650546056600.283,168.06306306306305,1605.8608058608058
1650546056631.444,168.06306306306305,1571.4285714285713
1650546056631.6472,167.9189884269181,1536.9963369963368
1650546056632.739,167.9189884269181,1504.0293040293038
1650546056654.083,167.9189884269181,1473.9926739926739
1650546056656.341,167.9189884269181,1450.5494505494505
1650546056656.5,167.9189884269181,1432.2344322344322
1650546056657.769,167.9189884269181,1417.5824175824175
1650546056686.71,167.9189884269181,1406.5934065934066
1650546056686.842,167.9189884269181,1397.069597069597
1650546056687.668,167.77516059957173,1387.5457875457876
1650546056712.7422,167.77516059957173,1378.7545787545787
1650546056713.8218,167.9189884269181,1372.161172161172
1650546056713.9639,167.9189884269181,1369.230769230769
1650546056715.2021,167.9189884269181,1367.7655677655678
1650546056716.454,167.9189884269181,1367.032967032967
1650546056748.913,167.9189884269181,1368.4981684981683
1650546056750.152,167.77516059957173,1369.9633699633698
1650546056750.349,167.77516059957173,1370.6959706959706
1650546056774.099,167.9189884269181,1372.8937728937728
1650546056775.114,167.9189884269181,1376.5567765567764
1650546056777.623,167.9189884269181,1380.952380952381
1650546056777.8372,167.9189884269181,1386.8131868131868
1650546056778.881,167.9189884269181,1390.4761904761904
1650546056806.531,167.9189884269181,1394.139194139194
1650546056808.2222,167.9189884269181,1397.069597069597
1650546056808.429,167.77516059957173,1400.0
1650546056831.478,167.9189884269181,1401.4652014652013
1650546056832.699,167.77516059957173,1404.3956043956043
1650546056833.779,167.9189884269181,1406.5934065934066
1650546056833.984,167.9189884269181,1408.058608058608
1650546056838.923,167.77516059957173,1408.7912087912086
1650546056863.847,167.77516059957173,1408.7912087912086
1650546056864.0908,167.77516059957173,1408.058608058608
1650546056865.123,167.9189884269181,1405.8608058608058
1650546056893.836,167.9189884269181,1402.197802197802
1650546056894.926,167.77516059957173,1399.2673992673992
1650546056896.148,167.9189884269181,1391.9413919413919
1650546056896.2258,167.77516059957173,1383.8827838827838
1650546056901.382,167.9189884269181,1374.3589743589744
1650546056927.519,167.77516059957173,1366.3003663003662
1650546056927.773,167.9189884269181,1356.0439560439559
1650546056928.77,167.9189884269181,1349.4505494505493
1650546056952.5708,167.9189884269181,1344.3223443223442
1650546056953.829,167.9189884269181,1340.6593406593406
1650546056954.918,167.9189884269181,1337.7289377289376
1650546056955.04,167.9189884269181,1336.263736263736
1650546056981.305,167.9189884269181,1334.065934065934
1650546056982.414,167.9189884269181,1331.135531135531
1650546056982.543,168.06306306306305,1326.007326007326
1650546057010.259,167.9189884269181,1321.6117216117216
1650546057011.2642,167.9189884269181,1315.7509157509157
1650546057016.237,167.9189884269181,1311.3553113553112
1650546057019.313,167.9189884269181,1307.6923076923076
1650546057019.489,167.77516059957173,1304.0293040293038
1650546057042.482,167.77516059957173,1298.9010989010987
1650546057067.499,167.9189884269181,1293.7728937728937
1650546057067.762,167.9189884269181,1290.8424908424909
1650546057068.684,167.77516059957173,1291.5750915750914
1650546057072.573,167.9189884269181,1293.7728937728937
1650546057073.654,167.9189884269181,1294.5054945054944
1650546057079.855,167.9189884269181,1295.2380952380952
1650546057080.0322,167.9189884269181,1297.4358974358975
1650546057106.545,167.9189884269181,1299.6336996336995
1650546057107.651,167.77516059957173,1302.5641025641025
1650546057107.94,168.06306306306305,1304.0293040293038
1650546057133.6602,167.9189884269181,1306.227106227106
1650546057134.927,167.77516059957173,1307.6923076923076
1650546057136.041,167.9189884269181,1309.1575091575091
1650546057137.414,167.9189884269181,1310.6227106227104
1650546057137.895,167.77516059957173,1311.3553113553112
1650546057163.6729,167.77516059957173,1309.89010989011
1650546057164.9028,167.9189884269181,1306.9597069597069
1650546057191.199,167.77516059957173,1301.8315018315018
1650546057191.554,167.77516059957173,1296.7032967032967
1650546057192.375,167.77516059957173,1293.040293040293
1650546057198.552,167.9189884269181,1292.3076923076922
1650546057199.802,167.9189884269181,1292.3076923076922
1650546057199.982,167.77516059957173,1293.040293040293
1650546057225.054,167.9189884269181,1293.7728937728937
1650546057226.151,167.77516059957173,1293.7728937728937
1650546057249.8118,167.9189884269181,1293.040293040293
1650546057249.9932,167.9189884269181,1290.10989010989
1650546057250.999,167.9189884269181,1286.4468864468863
1650546057252.272,167.9189884269181,1285.7142857142856
1650546057267.332,167.9189884269181,1284.9816849816848
1650546057267.603,167.77516059957173,1284.2490842490843
1650546057293.8682,167.9189884269181,1282.7838827838827
1650546057294.879,167.77516059957173,1282.7838827838827
1650546057314.811,167.77516059957173,1282.051282051282
1650546057315.0042,167.77516059957173,1282.051282051282
1650546057316.419,167.9189884269181,1282.051282051282
1650546057317.429,167.77516059957173,1282.051282051282
1650546057350.9878,167.9189884269181,1279.120879120879
1650546057351.213,167.77516059957173,1276.923076923077
1650546057352.262,167.9189884269181,1273.260073260073
1650546057372.213,167.9189884269181,1271.062271062271
1650546057372.548,168.06306306306305,1272.5274725274724
1650546057373.511,167.77516059957173,1274.7252747252746
1650546057377.352,167.9189884269181,1276.923076923077
1650546057383.433,167.9189884269181,1277.6556776556777
1650546057383.562,167.9189884269181,1278.3882783882782
1650546057408.536,167.77516059957173,1278.3882783882782
1650546057410.0671,167.9189884269181,1276.923076923077
1650546057430.943,167.9189884269181,1276.1904761904761
1650546057431.169,168.06306306306305,1275.4578754578754
1650546057432.2231,167.9189884269181,1274.7252747252746
1650546057433.497,167.77516059957173,1272.5274725274724
1650546057447.1719,167.9189884269181,1271.062271062271
1650546057447.387,167.77516059957173,1268.8644688644688
1650546057477.21,167.9189884269181,1265.9340659340658
1650546057478.436,167.9189884269181,1264.4688644688645
1650546057498.378,167.9189884269181,1263.003663003663
1650546057505.424,168.06306306306305,1262.2710622710622
1650546057505.864,167.9189884269181,1264.4688644688645
1650546057505.947,168.06306306306305,1265.9340659340658
1650546057527.239,167.9189884269181,1266.6666666666665
1650546057528.439,168.06306306306305,1267.3992673992673
1650546057528.61,167.77516059957173,1273.9926739926739
1650546057550.994,167.9189884269181,1283.5164835164835
1650546057552.208,167.9189884269181,1303.2967032967033
1650546057553.312,167.77516059957173,1335.5311355311355
1650546057553.5222,167.9189884269181,1373.6263736263736
1650546057559.722,167.9189884269181,1418.3150183150183
1650546057585.787,167.77516059957173,1465.9340659340658
1650546057585.919,167.9189884269181,1513.5531135531135
1650546057587.186,167.77516059957173,1561.9047619047617
1650546057612.159,167.9189884269181,1608.058608058608
1650546057613.368,167.77516059957173,1649.8168498168498
1650546057619.6091,167.9189884269181,1682.7838827838827
1650546057619.848,167.9189884269181,1707.6923076923076
1650546057622.428,167.9189884269181,1723.0769230769229
1650546057645.7761,167.9189884269181,1728.937728937729
1650546057645.968,167.77516059957173,1723.8095238095236
1650546057647.0771,167.9189884269181,1709.1575091575091
1650546057668.419,167.9189884269181,1686.4468864468863
1650546057669.545,167.9189884269181,1657.8754578754579
1650546057669.758,167.9189884269181,1627.106227106227
1650546057670.804,167.9189884269181,1593.4065934065934
1650546057684.591,168.06306306306305,1558.2417582417581
1650546057711.16,167.9189884269181,1521.6117216117216
1650546057711.977,168.06306306306305,1489.3772893772893
1650546057712.3188,167.9189884269181,1460.07326007326
1650546057737.067,168.06306306306305,1432.2344322344322
1650546057738.232,168.06306306306305,1408.7912087912086
1650546057739.37,168.06306306306305,1390.4761904761904
1650546057739.512,167.9189884269181,1377.2893772893772
1650546057740.722,168.06306306306305,1368.4981684981683
1650546057778.11,167.9189884269181,1363.3699633699632
1650546057779.664,168.06306306306305,1358.2417582417581
1650546057779.837,167.9189884269181,1356.7765567765566
1650546057789.5762,168.06306306306305,1355.3113553113553
1650546057792.0498,168.06306306306305,1356.0439560439559
1650546057793.189,168.06306306306305,1355.3113553113553
1650546057793.376,168.06306306306305,1354.5787545787546
1650546057834.634,168.06306306306305,1353.8461538461538
1650546057835.699,168.06306306306305,1356.0439560439559
1650546057854.448,168.06306306306305,1358.974358974359
1650546057854.769,167.9189884269181,1364.102564102564
1650546057855.766,167.9189884269181,1371.4285714285713
1650546057856.956,168.06306306306305,1381.6849816849815
1650546057858.041,167.9189884269181,1392.6739926739926
1650546057858.1582,167.9189884269181,1402.9304029304028
1650546057885.7068,168.06306306306305,1411.7216117216117
1650546057886.789,167.9189884269181,1419.7802197802198
1650546057908.173,168.06306306306305,1425.6410256410256
1650546057908.3508,168.06306306306305,1431.5018315018315
1650546057909.403,167.9189884269181,1433.6996336996335
1650546057910.727,167.9189884269181,1435.164835164835
1650546057924.388,168.06306306306305,1434.4322344322343
1650546057924.618,167.9189884269181,1432.2344322344322
1650546057950.745,168.06306306306305,1428.5714285714284
1650546057951.704,168.06306306306305,1421.9780219780218
1650546057971.845,168.06306306306305,1413.9194139194137
1650546057972.062,167.9189884269181,1405.128205128205
1650546057973.125,168.06306306306305,1397.069597069597
1650546057974.4539,168.06306306306305,1389.0109890109889
1650546057999.298,168.06306306306305,1379.4871794871794
1650546057999.5461,167.9189884269181,1367.032967032967
1650546058000.5679,167.9189884269181,1353.113553113553
1650546058029.388,168.06306306306305,1342.1245421245421
1650546058035.5361,168.06306306306305,1334.065934065934
1650546058035.849,167.9189884269181,1328.2051282051282
1650546058036.772,168.06306306306305,1325.2747252747251
1650546058038.0098,168.06306306306305,1322.3443223443223
1650546058046.737,167.9189884269181,1321.6117216117216
1650546058046.937,168.06306306306305,1320.14652014652
1650546058076.791,167.9189884269181,1320.14652014652
1650546058077.965,168.06306306306305,1318.6813186813185
1650546058090.444,168.06306306306305,1317.216117216117
1650546058090.5881,168.06306306306305,1314.2857142857142
1650546058091.703,168.06306306306305,1311.3553113553112
1650546058100.498,168.06306306306305,1312.087912087912
1650546058100.7148,167.9189884269181,1314.2857142857142
1650546058125.727,168.06306306306305,1316.4835164835165
1650546058126.7122,168.06306306306305,1318.6813186813185
1650546058150.418,168.06306306306305,1317.216117216117
1650546058151.66,168.06306306306305,1316.4835164835165
1650546058151.857,168.06306306306305,1316.4835164835165
1650546058153.02,168.06306306306305,1317.216117216117
1650546058161.781,168.06306306306305,1317.216117216117
1650546058186.815,167.77516059957173,1315.018315018315
1650546058187.064,168.06306306306305,1311.3553113553112
1650546058187.918,168.06306306306305,1306.227106227106
1650546058211.793,168.06306306306305,1301.8315018315018
1650546058214.093,168.06306306306305,1299.6336996336995
1650546058214.295,168.06306306306305,1301.098901098901
1650546058215.4329,168.06306306306305,1304.0293040293038
1650546058224.171,168.06306306306305,1306.9597069597069
1650546058250.3271,167.9189884269181,1309.1575091575091
1650546058250.47,167.9189884269181,1310.6227106227104
1650546058251.641,168.20738514383854,1310.6227106227104
1650546058271.635,168.06306306306305,1309.89010989011
1650546058286.55,168.06306306306305,1307.6923076923076
1650546058286.711,168.06306306306305,1306.227106227106
1650546058286.7551,168.06306306306305,1305.4945054945053
1650546058320.438,168.20738514383854,1304.0293040293038
1650546058321.6118,168.06306306306305,1301.8315018315018
1650546058321.826,167.9189884269181,1301.098901098901
1650546058321.894,168.06306306306305,1300.3663003663003
1650546058329.511,168.06306306306305,1298.168498168498
1650546058331.474,168.06306306306305,1296.7032967032967
1650546058331.695,168.06306306306305,1293.7728937728937
1650546058345.3628,168.06306306306305,1290.8424908424909
1650546058346.631,168.06306306306305,1286.4468864468863
1650546058372.824,168.06306306306305,1282.7838827838827
1650546058373.081,168.06306306306305,1279.8534798534797
1650546058374.107,168.06306306306305,1277.6556776556777
1650546058394.1382,168.06306306306305,1278.3882783882782
1650546058396.458,168.06306306306305,1279.120879120879
1650546058396.677,167.9189884269181,1282.051282051282
1650546058398.71,168.06306306306305,1283.5164835164835
1650546058430.326,167.9189884269181,1285.7142857142856
1650546058431.9192,168.06306306306305,1287.9120879120878
1650546058432.273,168.06306306306305,1291.5750915750914
1650546058449.669,168.06306306306305,1295.2380952380952
1650546058449.906,168.06306306306305,1295.970695970696
1650546058450.081,168.06306306306305,1296.7032967032967
1650546058450.123,167.9189884269181,1295.970695970696
1650546058464.3718,168.06306306306305,1292.3076923076922
1650546058488.989,167.9189884269181,1288.6446886446886
1650546058490.154,168.06306306306305,1285.7142857142856
1650546058490.309,167.9189884269181,1284.2490842490843
1650546058515.209,168.06306306306305,1282.051282051282
1650546058516.457,168.06306306306305,1282.051282051282
1650546058518.845,168.06306306306305,1280.5860805860805
1650546058519.0278,168.06306306306305,1279.120879120879
1650546058546.4858,168.06306306306305,1276.1904761904761
1650546058547.565,168.06306306306305,1274.7252747252746
1650546058547.7122,168.20738514383854,1276.923076923077
1650546058575.216,168.06306306306305,1283.5164835164835
1650546058576.4238,168.06306306306305,1294.5054945054944
1650546058579.02,168.06306306306305,1311.3553113553112
1650546058580.033,168.20738514383854,1333.3333333333333
1650546058580.132,168.06306306306305,1361.904761904762
1650546058606.493,168.06306306306305,1397.069597069597
1650546058607.6719,168.06306306306305,1438.8278388278388
1650546058628.846,168.06306306306305,1484.9816849816848
1650546058629.088,168.06306306306305,1532.6007326007325
1650546058630.111,168.06306306306305,1578.021978021978
1650546058631.236,168.20738514383854,1619.7802197802196
1650546058631.3528,168.06306306306305,1654.212454212454
1650546058645.128,168.06306306306305,1680.5860805860805
1650546058674.25,168.06306306306305,1695.970695970696
1650546058675.011,168.06306306306305,1701.098901098901
1650546058675.231,168.20738514383854,1696.7032967032967
1650546058690.104,168.06306306306305,1685.7142857142856
1650546058691.3918,168.20738514383854,1666.6666666666665
1650546058692.447,168.06306306306305,1642.4908424908424
1650546058706.2349,168.20738514383854,1612.4542124542124
1650546058706.397,168.06306306306305,1580.9523809523807
1650546058732.617,168.06306306306305,1547.985347985348
1650546058733.675,168.06306306306305,1514.2857142857142
1650546058733.815,168.20738514383854,1481.3186813186812
1650546058751.344,167.9189884269181,1453.4798534798533
1650546058752.563,168.06306306306305,1427.106227106227
1650546058753.651,168.06306306306305,1405.8608058608058
1650546058781.276,168.06306306306305,1389.0109890109889
1650546058781.568,168.06306306306305,1379.4871794871794
1650546058782.598,168.06306306306305,1370.6959706959706
1650546058806.2651,168.06306306306305,1363.3699633699632
1650546058807.383,168.20738514383854,1357.5091575091574
1650546058807.551,168.06306306306305,1351.6483516483515
1650546058808.719,168.06306306306305,1347.2527472527472
1650546058817.571,168.06306306306305,1345.054945054945
1650546058817.734,167.9189884269181,1342.8571428571427
1650546058842.4622,168.06306306306305,1340.6593406593406
1650546058845.5479,168.06306306306305,1342.1245421245421
1650546058872.532,168.06306306306305,1345.7875457875457
1650546058872.8,168.20738514383854,1350.18315018315
1650546058877.186,167.9189884269181,1358.974358974359
1650546058877.514,168.06306306306305,1366.3003663003662
1650546058883.6118,168.06306306306305,1373.6263736263736
1650546058909.8152,168.20738514383854,1384.6153846153845
1650546058910.011,168.06306306306305,1398.5347985347985
1650546058911.192,168.06306306306305,1408.7912087912086
1650546058933.647,168.20738514383854,1420.5128205128203
1650546058934.7861,168.06306306306305,1429.3040293040292
1650546058934.926,168.06306306306305,1435.164835164835
1650546058936.158,168.20738514383854,1439.5604395604394
1650546058945.019,168.20738514383854,1443.956043956044
1650546058972.379,168.06306306306305,1444.6886446886447
1650546058972.636,168.06306306306305,1441.7582417582416
1650546058976.9558,168.06306306306305,1436.6300366300366
1650546058992.434,168.20738514383854,1429.3040293040292
1650546058993.697,168.06306306306305,1420.5128205128203
1650546058993.853,168.06306306306305,1409.5238095238094
1650546058999.923,168.06306306306305,1396.3369963369962
1650546059028.472,168.20738514383854,1383.8827838827838
1650546059028.6519,168.06306306306305,1371.4285714285713
1650546059028.6912,168.06306306306305,1360.4395604395604
1650546059051.19,168.20738514383854,1350.18315018315
1650546059052.324,168.20738514383854,1341.3919413919414
1650546059058.4841,167.9189884269181,1335.5311355311355
1650546059058.6729,168.20738514383854,1328.2051282051282
1650546059059.897,168.20738514383854,1322.3443223443223
1650546059088.5,168.20738514383854,1317.9487179487178
1650546059089.8088,168.20738514383854,1314.2857142857142
1650546059089.997,168.06306306306305,1311.3553113553112
1650546059113.574,168.06306306306305,1309.1575091575091
1650546059114.834,168.06306306306305,1309.1575091575091
1650546059115.9219,167.9189884269181,1309.89010989011
1650546059116.081,168.06306306306305,1309.89010989011
1650546059117.271,168.20738514383854,1311.3553113553112
1650546059142.277,168.20738514383854,1315.018315018315
1650546059143.378,168.20738514383854,1319.4139194139193
1650546059143.467,168.06306306306305,1322.3443223443223
1650546059168.5122,168.20738514383854,1322.3443223443223
1650546059169.686,168.06306306306305,1321.6117216117216
1650546059170.794,168.20738514383854,1320.14652014652
1650546059170.849,168.20738514383854,1320.14652014652
1650546059198.52,168.20738514383854,1318.6813186813185
1650546059199.7112,168.20738514383854,1319.4139194139193
1650546059225.907,168.06306306306305,1318.6813186813185
1650546059226.085,167.9189884269181,1317.216117216117
1650546059227.178,168.06306306306305,1317.9487179487178
1650546059232.312,168.20738514383854,1316.4835164835165
1650546059233.322,168.06306306306305,1316.4835164835165
1650546059233.4622,168.06306306306305,1316.4835164835165
1650546059263.4832,168.06306306306305,1315.7509157509157
1650546059264.648,168.06306306306305,1316.4835164835165
1650546059293.333,168.20738514383854,1318.6813186813185
1650546059293.56,168.06306306306305,1323.076923076923
1650546059294.668,168.20738514383854,1324.5421245421244
1650546059295.774,168.20738514383854,1326.007326007326
1650546059295.954,168.20738514383854,1326.7399267399267
1650546059297.141,168.06306306306305,1326.7399267399267
1650546059305.981,168.06306306306305,1325.2747252747251
1650546059332.033,168.20738514383854,1322.3443223443223
1650546059333.2542,168.20738514383854,1320.14652014652
1650546059333.404,168.20738514383854,1313.5531135531135
1650546059353.3472,167.77516059957173,1306.9597069597069
1650546059358.373,168.06306306306305,1301.098901098901
1650546059389.699,168.20738514383854,1295.2380952380952
1650546059389.961,168.20738514383854,1292.3076923076922
1650546059390.8801,168.06306306306305,1290.10989010989
1650546059408.4202,168.06306306306305,1288.6446886446886
1650546059409.7869,168.20738514383854,1289.3772893772893
1650546059409.992,168.20738514383854,1291.5750915750914
1650546059410.9211,168.06306306306305,1293.7728937728937
1650546059413.249,168.20738514383854,1295.2380952380952
1650546059413.6729,168.20738514383854,1296.7032967032967
1650546059422.064,168.20738514383854,1298.9010989010987
1650546059449.734,168.20738514383854,1301.098901098901
1650546059451.176,168.06306306306305,1301.098901098901
1650546059472.004,168.20738514383854,1299.6336996336995
1650546059472.27,168.06306306306305,1298.168498168498
1650546059473.274,168.06306306306305,1296.7032967032967
1650546059474.491,168.06306306306305,1293.7728937728937
1650546059508.178,168.20738514383854,1291.5750915750914
1650546059508.379,168.20738514383854,1290.8424908424909
1650546059509.55,168.06306306306305,1290.8424908424909
1650546059534.427,168.20738514383854,1289.3772893772893
1650546059535.6191,168.20738514383854,1287.9120879120878
1650546059535.855,168.06306306306305,1287.9120879120878
1650546059537.048,168.20738514383854,1286.4468864468863
1650546059538.228,168.06306306306305,1285.7142857142856
1650546059563.135,168.06306306306305,1284.9816849816848
1650546059563.3308,168.06306306306305,1285.7142857142856
1650546059564.3809,168.06306306306305,1287.9120879120878
1650546059590.826,168.20738514383854,1290.8424908424909
1650546059593.174,168.20738514383854,1298.168498168498
1650546059593.5618,168.06306306306305,1312.8205128205127
1650546059594.6191,168.20738514383854,1334.7985347985348
1650546059595.679,168.06306306306305,1363.3699633699632
1650546059624.334,168.06306306306305,1397.069597069597
1650546059624.554,168.06306306306305,1438.095238095238
1650546059625.726,168.20738514383854,1484.2490842490843
1650546059651.8171,168.20738514383854,1530.4029304029302
1650546059652.101,168.06306306306305,1577.2893772893772
1650546059653.116,168.06306306306305,1621.9780219780218
1650546059654.4749,168.06306306306305,1660.07326007326
1650546059663.025,168.20738514383854,1693.7728937728937
1650546059663.1511,168.20738514383854,1718.6813186813185
1650546059691.845,168.20738514383854,1735.5311355311353
1650546059693.166,168.20738514383854,1739.9267399267399
1650546059706.73,168.06306306306305,1735.5311355311353
1650546059707.9211,168.20738514383854,1721.6117216117216
1650546059708.013,168.20738514383854,1703.296703296703
1650546059709.27,168.20738514383854,1674.7252747252746
1650546059723.4521,168.20738514383854,1643.2234432234432
1650546059723.77,168.06306306306305,1610.2564102564102
1650546059749.324,168.06306306306305,1577.2893772893772
1650546059750.53,168.20738514383854,1544.3223443223442
1650546059771.678,168.20738514383854,1512.8205128205127
1650546059772.957,168.20738514383854,1483.5164835164835
1650546059773.217,168.06306306306305,1459.3406593406592
1650546059774.3599,168.20738514383854,1436.6300366300366
1650546059799.195,168.20738514383854,1419.7802197802198
1650546059799.396,168.20738514383854,1407.3260073260071
1650546059800.508,168.06306306306305,1398.5347985347985
1650546059831.175,168.20738514383854,1392.6739926739926
1650546059831.411,167.9189884269181,1388.278388278388
1650546059831.568,168.20738514383854,1384.6153846153845
1650546059831.606,168.20738514383854,1382.4175824175823
1650546059836.872,168.06306306306305,1379.4871794871794
1650546059861.737,168.06306306306305,1378.7545787545787
1650546059862.056,168.20738514383854,1378.021978021978
1650546059863.118,168.20738514383854,1374.3589743589744
1650546059888.2861,168.20738514383854,1373.6263736263736
1650546059889.152,167.9189884269181,1377.2893772893772
1650546059890.3699,168.20738514383854,1382.4175824175823
1650546059890.5398,168.06306306306305,1391.2087912087911
1650546059899.26,168.06306306306305,1399.2673992673992
1650546059928.469,168.06306306306305,1408.7912087912086
1650546059928.627,168.20738514383854,1420.5128205128203
1650546059929.1748,168.06306306306305,1432.2344322344322
1650546059950.461,168.20738514383854,1443.956043956044
1650546059951.53,168.20738514383854,1454.212454212454
1650546059952.7559,168.20738514383854,1460.07326007326
1650546059952.8552,168.06306306306305,1464.4688644688645
1650546059961.7578,168.20738514383854,1465.9340659340658
1650546059987.853,168.06306306306305,1464.4688644688645
1650546059988.147,168.20738514383854,1459.3406593406592
1650546059989.1008,168.06306306306305,1449.8168498168498
1650546060012.959,168.06306306306305,1438.095238095238
1650546060014.094,168.20738514383854,1425.6410256410256
1650546060014.393,168.20738514383854,1413.9194139194137
1650546060015.4631,168.06306306306305,1402.9304029304028
1650546060040.4092,168.20738514383854,1392.6739926739926
1650546060041.532,168.06306306306305,1380.2197802197802
1650546060041.987,168.06306306306305,1369.230769230769
1650546060069.186,168.06306306306305,1359.7069597069597
1650546060070.507,168.20738514383854,1352.3809523809523
1650546060071.5288,168.06306306306305,1347.2527472527472
1650546060102.8271,168.06306306306305,1343.5897435897434
1650546060103.069,168.06306306306305,1342.8571428571427
1650546060104.043,168.06306306306305,1343.5897435897434
1650546060129.118,168.20738514383854,1343.5897435897434
1650546060130.1638,168.20738514383854,1342.1245421245421
1650546060130.6802,168.20738514383854,1341.3919413919414
1650546060134.0698,168.20738514383854,1338.4615384615383
1650546060137.581,168.20738514383854,1333.3333333333333
1650546060137.8,168.06306306306305,1326.007326007326
1650546060137.888,168.06306306306305,1317.9487179487178
1650546060165.3271,168.20738514383854,1311.3553113553112
1650546060166.334,168.06306306306305,1307.6923076923076
1650546060166.397,168.20738514383854,1308.4249084249084
1650546060191.569,168.20738514383854,1312.087912087912
1650546060192.727,168.20738514383854,1314.2857142857142
1650546060198.7551,168.20738514383854,1313.5531135531135
1650546060198.97,168.20738514383854,1312.8205128205127
1650546060199.105,168.06306306306305,1312.087912087912
1650546060225.2659,168.06306306306305,1309.89010989011
1650546060226.694,168.06306306306305,1306.9597069597069
1650546060226.913,168.20738514383854,1304.7619047619046
1650546060247.6921,168.20738514383854,1304.7619047619046
1650546060248.914,168.06306306306305,1306.9597069597069
1650546060250.057,168.06306306306305,1308.4249084249084
1650546060263.8308,168.20738514383854,1310.6227106227104
1650546060263.9912,168.06306306306305,1311.3553113553112
1650546060296.395,168.20738514383854,1309.1575091575091
1650546060297.513,168.20738514383854,1306.9597069597069
1650546060297.643,168.20738514383854,1305.4945054945053
1650546060307.772,168.06306306306305,1306.227106227106
1650546060308.91,168.20738514383854,1304.0293040293038
1650546060315.0889,168.20738514383854,1302.5641025641025
1650546060343.807,168.20738514383854,1298.9010989010987
1650546060344.01,168.06306306306305,1298.9010989010987
1650546060345.143,168.06306306306305,1300.3663003663003
1650546060363.94,168.06306306306305,1303.2967032967033
1650546060364.961,168.06306306306305,1305.4945054945053
1650546060365.053,168.06306306306305,1307.6923076923076
1650546060366.342,168.06306306306305,1307.6923076923076
1650546060381.381,168.06306306306305,1306.227106227106
1650546060406.312,168.06306306306305,1302.5641025641025
1650546060406.45,168.06306306306305,1299.6336996336995
1650546060407.591,168.20738514383854,1296.7032967032967
1650546060431.376,168.20738514383854,1293.040293040293
1650546060432.42,168.06306306306305,1290.8424908424909
1650546060432.595,168.06306306306305,1287.179487179487
1650546060433.906,168.06306306306305,1284.9816849816848
1650546060458.776,168.20738514383854,1284.2490842490843
1650546060487.479,167.9189884269181,1285.7142857142856
1650546060487.662,168.06306306306305,1284.2490842490843
1650546060488.728,168.06306306306305,1282.7838827838827
1650546060490.012,168.06306306306305,1282.051282051282
1650546060491.118,168.20738514383854,1281.3186813186812
1650546060491.224,168.06306306306305,1282.051282051282
1650546060492.528,168.06306306306305,1281.3186813186812
1650546060524.977,168.20738514383854,1282.051282051282
1650546060525.269,168.20738514383854,1282.051282051282
1650546060528.099,168.06306306306305,1280.5860805860805
1650546060547.526,168.20738514383854,1278.3882783882782
1650546060548.595,168.20738514383854,1274.7252747252746
1650546060548.755,168.06306306306305,1273.260073260073
1650546060549.988,168.06306306306305,1271.062271062271
1650546060563.76,168.20738514383854,1270.3296703296703
1650546060564.885,167.9189884269181,1271.062271062271
1650546060592.528,168.20738514383854,1271.062271062271
1650546060592.751,168.06306306306305,1274.7252747252746
1650546060593.7358,168.20738514383854,1279.120879120879
1650546060609.264,168.20738514383854,1287.9120879120878
1650546060609.756,168.06306306306305,1303.2967032967033
1650546060609.8809,168.06306306306305,1326.7399267399267
1650546060618.6572,168.06306306306305,1356.0439560439559
1650546060643.7139,168.06306306306305,1392.6739926739926
1650546060664.8071,167.9189884269181,1435.8974358974358
1650546060664.97,168.06306306306305,1483.5164835164835
1650546060666.2969,168.06306306306305,1533.3333333333333
1650546060667.339,168.06306306306305,1582.4175824175823
1650546060668.522,168.06306306306305,1627.106227106227
1650546060668.831,167.9189884269181,1667.3992673992673
1650546060682.384,168.06306306306305,1697.4358974358972
1650546060708.583,168.06306306306305,1716.4835164835163
1650546060709.732,168.06306306306305,1726.007326007326
1650546060709.857,168.06306306306305,1726.7399267399267
1650546060736.0999,168.06306306306305,1719.4139194139193
1650546060737.304,168.06306306306305,1704.7619047619046
1650546060738.485,168.06306306306305,1684.9816849816848
1650546060739.058,168.06306306306305,1656.4102564102564
1650546060739.804,168.06306306306305,1624.1758241758241
1650546060767.2852,167.9189884269181,1589.7435897435896
1650546060768.527,168.06306306306305,1554.5787545787546
1650546060768.699,167.9189884269181,1519.4139194139193
1650546060786.04,168.06306306306305,1487.9120879120878
1650546060787.271,168.06306306306305,1458.6080586080584
1650546060793.647,168.06306306306305,1431.5018315018315
1650546060793.968,168.06306306306305,1408.7912087912086
1650546060821.1182,168.06306306306305,1391.9413919413919
1650546060822.195,168.06306306306305,1380.2197802197802
1650546060822.388,168.06306306306305,1371.4285714285713
1650546060848.573,168.06306306306305,1364.8351648351647
1650546060849.725,168.06306306306305,1358.974358974359
1650546060850.852,168.20738514383854,1356.0439560439559
1650546060850.987,168.06306306306305,1355.3113553113553
1650546060859.7,168.06306306306305,1355.3113553113553
1650546060887.292,168.06306306306305,1357.5091575091574
1650546060888.3108,168.06306306306305,1359.7069597069597
1650546060909.888,168.06306306306305,1361.1721611721612
1650546060910.092,168.06306306306305,1366.3003663003662
1650546060910.9622,167.9189884269181,1373.6263736263736
1650546060912.0942,168.06306306306305,1381.6849816849815
1650546060912.277,168.06306306306305,1391.2087912087911
1650546060920.9531,168.06306306306305,1400.7326007326005
1650546060955.959,168.06306306306305,1410.2564102564102
1650546060956.99,168.06306306306305,1417.5824175824175
1650546060967.1162,168.06306306306305,1420.5128205128203
1650546060967.3071,167.9189884269181,1425.6410256410256
1650546060968.3599,168.06306306306305,1431.5018315018315
1650546060969.6519,168.06306306306305,1438.8278388278388
1650546060998.2458,168.06306306306305,1441.7582417582416
1650546060998.409,167.9189884269181,1442.4908424908424
1650546061000.538,168.06306306306305,1441.7582417582416
1650546061029.593,168.06306306306305,1437.3626373626373
1650546061030.738,168.06306306306305,1431.5018315018315
1650546061030.897,167.9189884269181,1424.9084249084249
1650546061032.177,168.06306306306305,1416.117216117216
1650546061033.4102,168.06306306306305,1405.128205128205
1650546061062.0488,168.06306306306305,1392.6739926739926
1650546061062.327,167.9189884269181,1380.952380952381
1650546061063.2961,168.06306306306305,1373.6263736263736
1650546061088.402,168.06306306306305,1367.032967032967
1650546061088.543,168.06306306306305,1360.4395604395604
1650546061088.583,167.9189884269181,1352.3809523809523
1650546061089.569,168.06306306306305,1343.5897435897434
1650546061098.396,168.06306306306305,1337.7289377289376
1650546061123.197,167.9189884269181,1332.6007326007325
1650546061123.4219,168.06306306306305,1325.2747252747251
1650546061124.482,168.06306306306305,1320.14652014652
1650546061152.005,168.06306306306305,1315.018315018315
1650546061153.091,167.9189884269181,1309.1575091575091
1650546061153.2222,167.9189884269181,1303.2967032967033
1650546061160.752,167.9189884269181,1298.168498168498
1650546061193.311,167.9189884269181,1294.5054945054944
1650546061194.318,168.06306306306305,1293.7728937728937
1650546061194.4348,167.9189884269181,1293.7728937728937
1650546061208.206,167.9189884269181,1295.2380952380952
1650546061209.2732,168.06306306306305,1298.168498168498
1650546061210.581,168.06306306306305,1300.3663003663003
1650546061210.8108,167.9189884269181,1304.0293040293038
1650546061212.056,167.9189884269181,1308.4249084249084
1650546061220.7651,168.06306306306305,1312.087912087912
1650546061249.317,167.9189884269181,1317.216117216117
1650546061249.491,167.9189884269181,1320.8791208791208
1650546061250.716,167.9189884269181,1323.8095238095236
1650546061271.859,168.06306306306305,1325.2747252747251
1650546061273.087,168.06306306306305,1325.2747252747251
1650546061273.269,168.06306306306305,1324.5421245421244
1650546061274.4292,168.06306306306305,1323.076923076923
1650546061303.109,167.9189884269181,1321.6117216117216
1650546061304.21,167.9189884269181,1320.8791208791208
1650546061304.324,167.9189884269181,1318.6813186813185
1650546061329.477,168.06306306306305,1318.6813186813185
1650546061330.413,168.06306306306305,1318.6813186813185
1650546061331.697,167.9189884269181,1319.4139194139193
1650546061331.818,167.9189884269181,1320.14652014652
1650546061333.2168,167.9189884269181,1319.4139194139193
1650546061359.3298,168.06306306306305,1317.216117216117
1650546061360.399,167.9189884269181,1313.5531135531135
1650546061360.493,167.9189884269181,1306.227106227106
1650546061388.0342,168.06306306306305,1299.6336996336995
1650546061389.375,167.77516059957173,1293.7728937728937
1650546061391.699,167.9189884269181,1287.9120879120878
1650546061391.9238,167.9189884269181,1285.7142857142856
1650546061400.6099,167.9189884269181,1287.179487179487
1650546061427.8928,167.9189884269181,1290.8424908424909
1650546061428.018,167.9189884269181,1295.2380952380952
1650546061429.23,167.9189884269181,1298.9010989010987
1650546061449.2632,167.9189884269181,1302.5641025641025
1650546061450.396,167.9189884269181,1303.2967032967033
1650546061450.581,167.9189884269181,1304.7619047619046
1650546061451.791,167.9189884269181,1306.227106227106
1650546061483.104,167.9189884269181,1306.9597069597069
1650546061484.069,167.9189884269181,1304.0293040293038
1650546061484.153,167.77516059957173,1301.098901098901
1650546061506.732,167.77516059957173,1298.9010989010987
1650546061507.953,167.9189884269181,1296.7032967032967
1650546061509.047,167.9189884269181,1294.5054945054944
1650546061510.305,167.9189884269181,1291.5750915750914
1650546061510.376,167.9189884269181,1287.9120879120878
1650546061524.199,167.9189884269181,1285.7142857142856
1650546061549.2139,167.9189884269181,1280.5860805860805
1650546061550.3062,167.77516059957173,1279.8534798534797
1650546061550.571,167.77516059957173,1282.051282051282
1650546061572.9849,167.9189884269181,1289.3772893772893
1650546061574.158,167.9189884269181,1295.970695970696
1650546061576.569,167.9189884269181,1309.1575091575091
1650546061576.767,167.9189884269181,1327.4725274725274
1650546061604.203,167.77516059957173,1352.3809523809523
1650546061605.5789,167.77516059957173,1381.6849816849815
1650546061605.805,167.9189884269181,1416.8498168498168
1650546061629.177,167.9189884269181,1458.6080586080584
1650546061629.4,167.77516059957173,1506.227106227106
1650546061630.221,167.77516059957173,1556.7765567765566
1650546061639.064,167.9189884269181,1607.3260073260071
1650546061639.3198,167.77516059957173,1656.4102564102564
1650546061664.126,167.9189884269181,1702.5641025641025
1650546061665.305,167.9189884269181,1741.3919413919414
1650546061687.762,167.9189884269181,1768.4981684981683
1650546061688.217,167.77516059957173,1781.6849816849815
1650546061689.07,167.9189884269181,1783.150183150183
1650546061690.2212,167.9189884269181,1774.3589743589741
1650546061704.0862,167.9189884269181,1758.2417582417581
1650546061704.429,167.77516059957173,1734.065934065934
1650546061731.6238,167.77516059957173,1704.7619047619046
1650546061732.656,167.77516059957173,1671.0622710622708
1650546061732.869,167.9189884269181,1634.4322344322343
1650546061747.877,167.9189884269181,1593.4065934065934
1650546061749.022,167.77516059957173,1553.8461538461538
1650546061750.123,167.77516059957173,1513.5531135531135
1650546061764.0122,167.9189884269181,1476.923076923077
1650546061764.3098,167.9189884269181,1444.6886446886447
1650546061791.477,167.9189884269181,1419.047619047619
1650546061792.702,167.9189884269181,1400.7326007326005
1650546061803.937,167.77516059957173,1389.7435897435896
1650546061804.153,167.77516059957173,1383.150183150183
1650546061805.255,167.9189884269181,1378.7545787545787
1650546061818.909,167.77516059957173,1373.6263736263736
1650546061820.079,167.6315789473684,1373.6263736263736
1650546061820.207,167.77516059957173,1372.161172161172
1650546061846.617,167.9189884269181,1372.8937728937728
1650546061847.687,167.9189884269181,1375.8241758241757
1650546061868.863,167.77516059957173,1380.2197802197802
1650546061869.112,167.77516059957173,1386.080586080586
1650546061870.2231,167.77516059957173,1393.4065934065934
1650546061878.799,167.9189884269181,1400.7326007326005
1650546061907.5862,167.77516059957173,1409.5238095238094
1650546061907.827,167.77516059957173,1419.047619047619
1650546061908.9229,167.77516059957173,1428.5714285714284
1650546061927.74,167.77516059957173,1438.8278388278388
1650546061928.791,167.9189884269181,1448.3516483516482
1650546061929.039,167.77516059957173,1457.142857142857
1650546061930.32,167.77516059957173,1465.9340659340658
1650546061943.7302,167.9189884269181,1473.9926739926739
1650546061973.767,167.77516059957173,1479.120879120879
1650546061974.011,167.77516059957173,1479.120879120879
1650546061975.072,167.77516059957173,1476.1904761904761
1650546061990.176,167.77516059957173,1471.7948717948716
1650546061991.198,167.77516059957173,1463.7362637362637
1650546061991.3599,167.77516059957173,1452.014652014652
1650546061992.584,167.77516059957173,1440.2930402930401
1650546062018.894,167.9189884269181,1428.5714285714284
1650546062019.937,167.6315789473684,1418.3150183150183
1650546062020.086,167.77516059957173,1407.3260073260071
1650546062027.626,167.77516059957173,1399.2673992673992
1650546062053.7952,167.77516059957173,1388.278388278388
1650546062054.159,167.77516059957173,1377.2893772893772
1650546062054.33,167.77516059957173,1369.230769230769
1650546062062.5378,167.9189884269181,1361.904761904762
1650546062088.653,167.77516059957173,1354.5787545787546
1650546062088.841,167.9189884269181,1347.2527472527472
1650546062089.979,167.77516059957173,1341.3919413919414
1650546062109.985,167.77516059957173,1335.5311355311355
1650546062111.3801,167.9189884269181,1330.4029304029302
1650546062111.5479,167.77516059957173,1326.7399267399267
1650546062112.463,167.77516059957173,1320.8791208791208
1650546062113.727,167.9189884269181,1317.216117216117
1650546062138.766,167.77516059957173,1313.5531135531135
1650546062139.018,167.77516059957173,1311.3553113553112
1650546062139.916,167.77516059957173,1309.89010989011
1650546062164.9438,167.77516059957173,1311.3553113553112
1650546062166.145,167.77516059957173,1313.5531135531135
1650546062167.247,167.77516059957173,1317.9487179487178
1650546062167.365,167.77516059957173,1322.3443223443223
1650546062181.254,167.77516059957173,1325.2747252747251
1650546062208.545,167.77516059957173,1328.2051282051282
1650546062209.726,167.77516059957173,1334.065934065934
1650546062209.834,167.77516059957173,1336.9963369963368
1650546062229.881,167.77516059957173,1339.9267399267399
1650546062231.096,167.77516059957173,1341.3919413919414
1650546062231.2642,167.77516059957173,1340.6593406593406
1650546062232.409,167.77516059957173,1339.9267399267399
1650546062258.6912,167.77516059957173,1339.9267399267399
1650546062259.7139,167.77516059957173,1339.194139194139
1650546062286.257,167.77516059957173,1336.9963369963368
1650546062286.611,167.77516059957173,1334.7985347985348
1650546062287.2961,167.77516059957173,1333.3333333333333
1650546062291.117,167.9189884269181,1331.135531135531
1650546062292.24,167.77516059957173,1331.8681318681317
1650546062292.434,167.77516059957173,1331.8681318681317
1650546062319.942,167.77516059957173,1330.4029304029302
1650546062320.944,167.77516059957173,1328.2051282051282
1650546062345.303,167.6315789473684,1325.2747252747251
1650546062345.5579,167.77516059957173,1320.8791208791208
1650546062346.0432,167.6315789473684,1319.4139194139193
1650546062347.2942,167.9189884269181,1317.9487179487178
1650546062356.153,167.77516059957173,1317.9487179487178
1650546062356.2979,167.77516059957173,1317.9487179487178
1650546062388.511,167.77516059957173,1319.4139194139193
1650546062389.683,167.77516059957173,1317.216117216117
1650546062404.706,167.77516059957173,1315.018315018315
1650546062404.971,167.6315789473684,1312.087912087912
1650546062406.066,167.9189884269181,1309.89010989011
1650546062407.219,167.77516059957173,1305.4945054945053
1650546062421.009,167.77516059957173,1303.2967032967033
1650546062421.249,167.77516059957173,1305.4945054945053
1650546062455.959,167.77516059957173,1308.4249084249084
1650546062457.064,167.77516059957173,1308.4249084249084
1650546062469.5251,167.77516059957173,1306.9597069597069
1650546062469.702,167.6315789473684,1304.7619047619046
1650546062469.744,167.77516059957173,1304.7619047619046
1650546062469.78,167.6315789473684,1301.098901098901
1650546062482.1602,167.6315789473684,1298.9010989010987
1650546062482.382,167.77516059957173,1298.168498168498
1650546062510.953,167.6315789473684,1301.098901098901
1650546062512.0498,167.77516059957173,1302.5641025641025
1650546062512.2559,167.77516059957173,1305.4945054945053
1650546062527.157,167.77516059957173,1306.227106227106
1650546062535.9932,167.77516059957173,1307.6923076923076
1650546062562.1282,167.6315789473684,1309.89010989011
1650546062562.309,167.6315789473684,1309.1575091575091
1650546062563.329,167.6315789473684,1307.6923076923076
1650546062588.43,167.77516059957173,1305.4945054945053
1650546062589.5432,167.77516059957173,1301.098901098901
1650546062590.7031,167.77516059957173,1298.168498168498
1650546062590.823,167.6315789473684,1297.4358974358975
1650546062592.0552,167.77516059957173,1301.098901098901
1650546062593.365,167.77516059957173,1306.9597069597069
1650546062619.7651,167.77516059957173,1320.8791208791208
1650546062619.953,167.77516059957173,1339.9267399267399
1650546062620.7869,167.6315789473684,1369.230769230769
1650546062648.308,167.77516059957173,1404.3956043956043
1650546062650.6692,167.6315789473684,1446.153846153846
1650546062650.85,167.6315789473684,1495.2380952380952
1650546062653.155,167.77516059957173,1550.18315018315
1650546062658.737,167.77516059957173,1605.128205128205
1650546062684.436,167.6315789473684,1660.8058608058607
1650546062684.66,167.6315789473684,1710.6227106227104
1650546062685.828,167.6315789473684,1753.8461538461538
1650546062708.354,167.77516059957173,1783.8827838827838
1650546062710.591,167.77516059957173,1803.6630036630036
1650546062710.719,167.6315789473684,1813.9194139194137
1650546062711.979,167.6315789473684,1813.186813186813
1650546062739.585,167.77516059957173,1801.4652014652013
1650546062740.988,167.6315789473684,1780.9523809523807
1650546062741.191,167.77516059957173,1749.4505494505493
1650546062765.758,167.77516059957173,1713.5531135531135
1650546062766.871,167.77516059957173,1673.260073260073
1650546062770.62,167.77516059957173,1634.4322344322343
1650546062770.77,167.6315789473684,1596.3369963369962
1650546062770.8088,167.77516059957173,1559.7069597069597
1650546062783.4822,167.77516059957173,1520.8791208791208
1650546062816.774,167.77516059957173,1490.10989010989
1650546062816.8982,167.6315789473684,1466.6666666666665
1650546062818.185,167.77516059957173,1450.5494505494505
1650546062825.6929,167.77516059957173,1438.095238095238
1650546062826.8162,167.77516059957173,1429.3040293040292
1650546062827.082,167.6315789473684,1425.6410256410256
1650546062835.655,167.77516059957173,1423.4432234432234
1650546062865.682,167.77516059957173,1421.245421245421
1650546062866.758,167.6315789473684,1419.7802197802198
1650546062866.995,167.77516059957173,1415.3846153846152
1650546062884.459,167.77516059957173,1412.4542124542124
1650546062885.439,167.77516059957173,1409.5238095238094
1650546062885.7068,167.6315789473684,1408.7912087912086
1650546062886.863,167.6315789473684,1409.5238095238094
1650546062900.615,167.77516059957173,1415.3846153846152
1650546062929.252,167.77516059957173,1420.5128205128203
1650546062929.675,167.77516059957173,1427.8388278388277
1650546062930.702,167.6315789473684,1434.4322344322343
1650546062948.091,167.77516059957173,1439.5604395604394
1650546062949.309,167.6315789473684,1444.6886446886447
1650546062949.442,167.6315789473684,1451.2820512820513
1650546062949.5088,167.6315789473684,1459.3406593406592
1650546062963.093,167.77516059957173,1468.8644688644688
1650546062989.332,167.77516059957173,1475.4578754578754
1650546062989.636,167.6315789473684,1479.120879120879
1650546062990.5479,167.6315789473684,1478.3882783882782
1650546063006.806,167.77516059957173,1478.3882783882782
1650546063007.8682,167.77516059957173,1475.4578754578754
1650546063007.994,167.77516059957173,1468.8644688644688
1650546063009.219,167.6315789473684,1459.3406593406592
1650546063022.9958,167.77516059957173,1449.8168498168498
1650546063050.513,167.77516059957173,1438.095238095238
1650546063051.562,167.77516059957173,1425.6410256410256
1650546063051.708,167.6315789473684,1413.1868131868132
1650546063068.116,167.6315789473684,1400.7326007326005
1650546063069.078,167.77516059957173,1387.5457875457876
1650546063070.3672,167.77516059957173,1375.8241758241757
1650546063070.591,167.6315789473684,1365.5677655677655
1650546063096.863,167.6315789473684,1358.2417582417581
1650546063097.89,167.9189884269181,1350.18315018315
1650546063122.8098,167.77516059957173,1343.5897435897434
1650546063122.987,167.6315789473684,1340.6593406593406
1650546063124.1208,167.77516059957173,1342.1245421245421
1650546063134.065,167.77516059957173,1343.5897435897434
1650546063135.208,167.77516059957173,1343.5897435897434
1650546063135.32,167.6315789473684,1344.3223443223442
1650546063160.383,167.77516059957173,1345.054945054945
1650546063161.63,167.77516059957173,1345.054945054945
1650546063189.071,167.77516059957173,1342.8571428571427
1650546063189.2979,167.77516059957173,1341.3919413919414
1650546063190.346,167.77516059957173,1342.1245421245421
1650546063192.7869,167.77516059957173,1340.6593406593406
1650546063200.5352,167.77516059957173,1336.263736263736
1650546063200.715,167.6315789473684,1330.4029304029302
1650546063227.815,167.6315789473684,1328.2051282051282
1650546063228.955,167.77516059957173,1324.5421245421244
1650546063229.1492,167.77516059957173,1323.076923076923
1650546063247.803,167.6315789473684,1321.6117216117216
1650546063249.0188,167.77516059957173,1323.076923076923
1650546063250.175,167.77516059957173,1321.6117216117216
1650546063277.719,167.9189884269181,1320.8791208791208
1650546063277.8872,167.77516059957173,1319.4139194139193
1650546063279.063,167.77516059957173,1317.9487179487178
1650546063305.26,167.77516059957173,1314.2857142857142
1650546063306.353,167.77516059957173,1312.8205128205127
1650546063306.478,167.77516059957173,1313.5531135531135
1650546063307.698,167.77516059957173,1315.7509157509157
1650546063314.003,167.77516059957173,1316.4835164835165
1650546063346.355,167.77516059957173,1316.4835164835165
1650546063346.504,167.77516059957173,1315.7509157509157
1650546063347.623,167.77516059957173,1314.2857142857142
1650546063372.545,167.77516059957173,1311.3553113553112
1650546063372.678,167.77516059957173,1311.3553113553112
1650546063373.983,167.6315789473684,1309.1575091575091
1650546063375.18,167.77516059957173,1306.9597069597069
1650546063377.5789,167.77516059957173,1304.0293040293038
1650546063403.859,167.77516059957173,1304.0293040293038
1650546063404.094,167.77516059957173,1306.227106227106
1650546063405.183,167.6315789473684,1310.6227106227104
1650546063423.9248,167.77516059957173,1315.018315018315
1650546063424.578,167.77516059957173,1317.216117216117
1650546063425.184,167.77516059957173,1316.4835164835165
1650546063426.382,167.9189884269181,1312.8205128205127
1650546063442.59,167.77516059957173,1309.1575091575091
1650546063442.789,167.77516059957173,1304.7619047619046
1650546063470.133,167.77516059957173,1299.6336996336995
1650546063471.421,167.77516059957173,1295.2380952380952
1650546063487.56,167.77516059957173,1290.10989010989
1650546063488.72,167.77516059957173,1287.179487179487
1650546063488.879,167.77516059957173,1284.2490842490843
1650546063490.114,167.9189884269181,1284.9816849816848
1650546063517.591,167.77516059957173,1283.5164835164835
1650546063517.813,167.6315789473684,1284.9816849816848
1650546063518.782,167.77516059957173,1283.5164835164835
1650546063545.049,167.77516059957173,1284.2490842490843
1650546063546.227,167.77516059957173,1283.5164835164835
1650546063546.394,167.77516059957173,1286.4468864468863
1650546063552.5168,167.77516059957173,1290.10989010989
1650546063553.752,167.9189884269181,1291.5750915750914
1650546063581.2212,167.77516059957173,1291.5750915750914
1650546063582.377,167.6315789473684,1293.040293040293
1650546063582.561,167.9189884269181,1293.7728937728937
1650546063609.988,167.77516059957173,1294.5054945054944
1650546063611.1838,167.77516059957173,1292.3076923076922
1650546063612.3608,167.77516059957173,1291.5750915750914
1650546063612.5022,167.77516059957173,1291.5750915750914
1650546063613.697,167.77516059957173,1293.040293040293
1650546063639.955,167.6315789473684,1293.7728937728937
1650546063640.167,167.77516059957173,1296.7032967032967
1650546063641.191,167.9189884269181,1304.0293040293038
1650546063664.9622,167.77516059957173,1318.6813186813185
1650546063666.2358,167.77516059957173,1341.3919413919414
1650546063667.361,167.77516059957173,1371.4285714285713
1650546063667.5032,167.77516059957173,1410.2564102564102
1650546063681.298,167.77516059957173,1458.6080586080584
1650546063713.708,167.77516059957173,1514.2857142857142
1650546063726.702,167.77516059957173,1575.091575091575
1650546063726.882,167.77516059957173,1632.9670329670328
1650546063727.459,167.77516059957173,1685.7142857142856
1650546063728.6611,167.77516059957173,1729.6703296703295
1650546063729.736,167.77516059957173,1764.8351648351647
1650546063729.845,167.77516059957173,1791.2087912087911
1650546063741.2,167.77516059957173,1809.5238095238094
1650546063767.3381,167.77516059957173,1816.8498168498168
1650546063788.689,167.6315789473684,1811.7216117216117
1650546063788.8801,167.77516059957173,1792.6739926739926
1650546063788.922,167.77516059957173,1767.032967032967
1650546063791.397,167.77516059957173,1731.8681318681317
1650546063791.5598,167.9189884269181,1692.3076923076922
1650546063791.5918,167.77516059957173,1650.5494505494505
1650546063816.063,167.6315789473684,1610.989010989011
1650546063817.2048,167.9189884269181,1570.6959706959706
1650546063844.7012,167.9189884269181,1533.3333333333333
1650546063844.843,167.77516059957173,1498.9010989010987
1650546063846.158,167.9189884269181,1469.5970695970695
1650546063849.8171,167.77516059957173,1443.956043956044
1650546063850.8699,167.77516059957173,1422.7106227106226
1650546063850.9631,167.9189884269181,1405.8608058608058
1650546063877.2358,167.6315789473684,1392.6739926739926
1650546063878.499,167.77516059957173,1381.6849816849815
1650546063905.8608,167.9189884269181,1375.091575091575
1650546063906.083,167.77516059957173,1371.4285714285713
1650546063909.762,167.77516059957173,1371.4285714285713
1650546063910.943,167.9189884269181,1370.6959706959706
1650546063917.1172,167.77516059957173,1369.9633699633698
1650546063917.366,167.77516059957173,1370.6959706959706
1650546063946.031,167.77516059957173,1373.6263736263736
1650546063947.0388,167.9189884269181,1379.4871794871794
1650546063965.907,167.77516059957173,1388.278388278388
1650546063966.107,167.9189884269181,1397.069597069597
1650546063967.211,167.77516059957173,1408.058608058608
1650546063968.438,167.77516059957173,1421.245421245421
1650546063982.101,167.77516059957173,1433.6996336996335
1650546063982.31,167.77516059957173,1446.8864468864467
1650546064007.242,167.77516059957173,1458.6080586080584
1650546064008.292,167.77516059957173,1471.062271062271
1650546064029.748,167.77516059957173,1479.8534798534797
1650546064030.042,167.77516059957173,1484.9816849816848
1650546064030.0889,167.77516059957173,1485.7142857142856
1650546064030.119,167.9189884269181,1480.5860805860805
1650546064058.213,167.9189884269181,1473.9926739926739
1650546064058.362,167.77516059957173,1467.3992673992673
1650546064059.609,167.77516059957173,1457.142857142857
1650546064085.9019,167.9189884269181,1445.4212454212454
1650546064086.987,167.77516059957173,1434.4322344322343
1650546064087.092,167.9189884269181,1425.6410256410256
1650546064092.297,167.77516059957173,1417.5824175824175
1650546064093.2778,167.9189884269181,1407.3260073260071
1650546064118.239,167.9189884269181,1394.8717948717947
1650546064118.398,167.9189884269181,1381.6849816849815
1650546064119.634,167.77516059957173,1368.4981684981683
1650546064148.24,167.9189884269181,1355.3113553113553
1650546064149.404,167.77516059957173,1343.5897435897434
1650546064149.622,167.9189884269181,1335.5311355311355
1650546064151.208,167.77516059957173,1330.4029304029302
1650546064155.7651,167.9189884269181,1327.4725274725274
1650546064188.194,167.9189884269181,1325.2747252747251
1650546064188.411,167.9189884269181,1323.8095238095236
1650546064189.533,167.77516059957173,1323.076923076923
1650546064203.1292,167.77516059957173,1323.8095238095236
1650546064203.267,167.9189884269181,1326.007326007326
1650546064204.318,167.77516059957173,1327.4725274725274
1650546064204.4612,167.9189884269181,1328.2051282051282
1650546064218.16,167.9189884269181,1328.2051282051282
1650546064218.506,167.9189884269181,1326.007326007326
1650546064249.633,167.9189884269181,1324.5421245421244
1650546064250.6821,167.77516059957173,1321.6117216117216
1650546064265.5808,167.9189884269181,1317.9487179487178
1650546064266.887,167.9189884269181,1315.018315018315
1650546064267.091,167.9189884269181,1312.8205128205127
1650546064268.292,167.77516059957173,1312.8205128205127
1650546064281.907,167.9189884269181,1315.018315018315
1650546064310.676,167.77516059957173,1314.2857142857142
1650546064310.935,168.06306306306305,1312.8205128205127
1650546064311.925,167.9189884269181,1315.7509157509157
1650546064326.885,167.77516059957173,1320.14652014652
1650546064329.299,167.9189884269181,1323.8095238095236
1650546064329.538,167.77516059957173,1328.937728937729
1650546064330.634,167.9189884269181,1331.8681318681317
1650546064360.586,167.9189884269181,1332.6007326007325
1650546064361.6929,167.9189884269181,1333.3333333333333
1650546064361.819,167.9189884269181,1334.065934065934
1650546064383.152,167.77516059957173,1335.5311355311355
1650546064384.182,167.9189884269181,1334.065934065934
1650546064385.398,167.9189884269181,1332.6007326007325
1650546064385.57,167.9189884269181,1328.937728937729
1650546064399.437,167.77516059957173,1326.7399267399267
1650546064424.1418,167.77516059957173,1323.076923076923
1650546064424.267,167.9189884269181,1320.14652014652
1650546064425.48,167.77516059957173,1317.216117216117
1650546064445.543,167.77516059957173,1315.7509157509157
1650546064446.6309,167.9189884269181,1315.018315018315
1650546064447.9229,167.9189884269181,1313.5531135531135
1650546064448.092,167.9189884269181,1309.89010989011
1650546064461.8508,167.77516059957173,1306.9597069597069
1650546064492.857,167.77516059957173,1306.9597069597069
1650546064493.0242,167.77516059957173,1306.9597069597069
1650546064494.241,167.9189884269181,1306.227106227106
1650546064508.281,167.77516059957173,1307.6923076923076
1650546064509.289,167.77516059957173,1307.6923076923076
1650546064520.478,167.9189884269181,1306.227106227106
1650546064520.72,167.9189884269181,1306.227106227106
1650546064557.992,167.77516059957173,1305.4945054945053
1650546064559.07,167.9189884269181,1303.2967032967033
1650546064559.2092,167.9189884269181,1299.6336996336995
1650546064559.249,167.9189884269181,1299.6336996336995
1650546064564.332,167.9189884269181,1303.2967032967033
1650546064565.275,167.9189884269181,1306.9597069597069
1650546064574.035,167.9189884269181,1308.4249084249084
1650546064574.162,167.9189884269181,1306.9597069597069
1650546064600.439,167.77516059957173,1306.9597069597069
1650546064601.702,167.9189884269181,1307.6923076923076
1650546064624.072,167.77516059957173,1308.4249084249084
1650546064624.324,167.9189884269181,1308.4249084249084
1650546064625.8708,167.77516059957173,1309.1575091575091
1650546064626.403,167.9189884269181,1309.89010989011
1650546064635.282,167.77516059957173,1310.6227106227104
1650546064635.438,167.9189884269181,1310.6227106227104
1650546064660.363,167.77516059957173,1316.4835164835165
1650546064661.428,167.9189884269181,1324.5421245421244
1650546064661.584,167.9189884269181,1337.7289377289376
1650546064687.9521,167.9189884269181,1358.2417582417581
1650546064689.111,167.77516059957173,1391.9413919413919
1650546064691.5022,167.77516059957173,1434.4322344322343
1650546064701.394,167.77516059957173,1484.2490842490843
1650546064701.527,167.9189884269181,1540.6593406593406
1650546064732.771,167.77516059957173,1600.0
1650546064734.0332,167.77516059957173,1657.8754578754579
1650546064745.2778,167.77516059957173,1710.6227106227104
1650546064745.6191,167.9189884269181,1754.5787545787546
1650546064746.733,167.77516059957173,1787.5457875457873
1650546064747.801,167.77516059957173,1803.6630036630036
1650546064757.782,167.77516059957173,1808.058608058608
1650546064757.957,167.77516059957173,1801.4652014652013
1650546064789.047,167.6315789473684,1784.6153846153845
1650546064790.103,167.9189884269181,1757.5091575091574
1650546064790.2988,167.77516059957173,1722.3443223443223
1650546064805.333,167.77516059957173,1682.051282051282
1650546064806.624,167.77516059957173,1641.7582417582416
1650546064807.589,167.77516059957173,1600.0
1650546064821.474,167.77516059957173,1560.4395604395604
1650546064821.757,167.77516059957173,1523.0769230769229
1650546064850.368,167.77516059957173,1487.9120879120878
1650546064851.4258,167.77516059957173,1456.4102564102564
1650546064865.767,167.77516059957173,1431.5018315018315
1650546064866.024,167.9189884269181,1410.989010989011
1650546064866.3882,167.6315789473684,1400.7326007326005
1650546064880.2422,167.6315789473684,1393.4065934065934
1650546064912.531,167.6315789473684,1390.4761904761904
1650546064912.684,167.77516059957173,1386.080586080586
1650546064913.935,167.6315789473684,1383.8827838827838
1650546064926.3389,167.77516059957173,1380.2197802197802
1650546064926.549,167.77516059957173,1376.5567765567764
1650546064927.861,167.77516059957173,1374.3589743589744
1650546064928.8682,167.6315789473684,1373.6263736263736
1650546064937.604,167.6315789473684,1375.091575091575
1650546064967.6099,167.48824283881999,1378.7545787545787
1650546064967.834,167.6315789473684,1381.6849816849815
1650546064968.83,167.6315789473684,1388.278388278388
1650546064982.475,167.6315789473684,1395.6043956043954
1650546064982.864,167.6315789473684,1402.9304029304028
1650546064987.642,167.6315789473684,1411.7216117216117
1650546065001.189,167.6315789473684,1424.1758241758241
1650546065001.303,167.6315789473684,1435.8974358974358
1650546065001.3389,167.6315789473684,1445.4212454212454
1650546065028.847,167.6315789473684,1455.6776556776556
1650546065030.043,167.48824283881999,1465.201465201465
1650546065047.555,167.48824283881999,1469.5970695970695
1650546065048.719,167.6315789473684,1470.3296703296703
1650546065048.912,167.6315789473684,1469.5970695970695
1650546065049.947,167.48824283881999,1465.9340659340658
1650546065078.701,167.48824283881999,1460.8058608058607
1650546065079.0479,167.48824283881999,1454.212454212454
1650546065080.013,167.6315789473684,1444.6886446886447
1650546065106.21,167.48824283881999,1435.164835164835
1650546065107.433,167.3451516445963,1422.7106227106226
1650546065108.604,167.48824283881999,1411.7216117216117
1650546065108.732,167.48824283881999,1402.9304029304028
1650546065109.9949,167.3451516445963,1394.139194139194
1650546065136.105,167.3451516445963,1385.3479853479853
1650546065136.304,167.48824283881999,1378.7545787545787
1650546065137.368,167.48824283881999,1373.6263736263736
1650546065163.696,167.202304737516,1371.4285714285713
1650546065164.864,167.48824283881999,1366.3003663003662
1650546065169.8452,167.3451516445963,1360.4395604395604
1650546065170.0571,167.48824283881999,1353.113553113553
1650546065171.207,167.202304737516,1347.2527472527472
1650546065198.6948,167.202304737516,1338.4615384615383
1650546065198.889,167.3451516445963,1329.6703296703297
1650546065199.886,167.3451516445963,1319.4139194139193
1650546065224.8281,167.202304737516,1312.8205128205127
1650546065226.065,167.202304737516,1306.227106227106
1650546065227.194,167.202304737516,1303.2967032967033
1650546065227.333,167.202304737516,1298.9010989010987
1650546065241.158,167.202304737516,1294.5054945054944
1650546065267.194,167.202304737516,1288.6446886446886
1650546065268.403,167.202304737516,1287.9120879120878
1650546065268.535,167.202304737516,1290.8424908424909
1650546065284.8389,166.91734128674904,1296.7032967032967
1650546065286.0369,167.0597014925373,1302.5641025641025
1650546065292.342,167.202304737516,1306.9597069597069
1650546065292.591,167.0597014925373,1311.3553113553112
1650546065321.0908,167.0597014925373,1314.2857142857142
1650546065322.221,167.0597014925373,1313.5531135531135
1650546065322.405,166.91734128674904,1313.5531135531135
1650546065344.806,167.0597014925373,1312.087912087912
1650546065346.0,166.91734128674904,1312.087912087912
1650546065347.139,166.91734128674904,1314.2857142857142
1650546065347.2532,167.0597014925373,1315.7509157509157
1650546065356.082,167.0597014925373,1318.6813186813185
1650546065380.981,166.77522349936143,1321.6117216117216
1650546065382.05,166.91734128674904,1321.6117216117216
1650546065404.6409,166.91734128674904,1320.14652014652
1650546065404.826,166.91734128674904,1316.4835164835165
1650546065405.918,166.77522349936143,1313.5531135531135
1650546065407.1619,166.91734128674904,1309.89010989011
1650546065415.882,166.77522349936143,1306.227106227106
1650546065416.101,166.77522349936143,1300.3663003663003
1650546065440.896,166.63334751169714,1295.970695970696
1650546065441.969,166.77522349936143,1290.10989010989
1650546065467.072,166.77522349936143,1285.7142857142856
1650546065467.289,166.77522349936143,1282.051282051282
1650546065468.4019,166.63334751169714,1279.8534798534797
1650546065469.5898,166.63334751169714,1278.3882783882782
1650546065478.3062,166.63334751169714,1278.3882783882782
1650546065478.466,166.63334751169714,1278.3882783882782
1650546065505.83,166.4917127071823,1279.120879120879
1650546065506.9329,166.63334751169714,1281.3186813186812
1650546065525.761,166.63334751169714,1283.5164835164835
1650546065526.031,166.63334751169714,1287.179487179487
1650546065527.062,166.35031847133757,1290.10989010989
1650546065528.39,166.4917127071823,1291.5750915750914
1650546065553.3618,166.4917127071823,1292.3076923076922
1650546065553.606,166.4917127071823,1294.5054945054944
1650546065554.7,166.35031847133757,1296.7032967032967
1650546065580.687,166.35031847133757,1298.168498168498
1650546065581.86,166.35031847133757,1302.5641025641025
1650546065581.9622,166.4917127071823,1306.227106227106
1650546065589.638,166.2091641917692,1309.89010989011
1650546065590.61,166.35031847133757,1312.087912087912
1650546065590.698,166.35031847133757,1312.8205128205127
1650546065615.829,166.35031847133757,1313.5531135531135
1650546065617.2458,166.2091641917692,1309.89010989011
1650546065641.886,166.2091641917692,1306.227106227106
1650546065643.052,166.2091641917692,1301.8315018315018
1650546065643.156,166.2091641917692,1293.7728937728937
1650546065652.089,165.92757306226176,1286.4468864468863
1650546065683.1938,166.06824925816022,1274.7252747252746
1650546065684.325,166.06824925816022,1265.2014652014652
1650546065684.4448,166.06824925816022,1260.07326007326
1650546065684.4858,166.06824925816022,1257.142857142857
1650546065703.352,166.06824925816022,1255.6776556776556
1650546065704.3281,166.06824925816022,1257.8754578754579
1650546065704.507,165.92757306226176,1264.4688644688645
1650546065705.672,165.92757306226176,1276.1904761904761
1650546065719.5078,165.92757306226176,1295.970695970696
1650546065744.668,165.92757306226176,1323.8095238095236
1650546065744.8489,165.78713499788404,1362.6373626373625
1650546065745.7039,165.64693446088793,1410.989010989011
1650546065771.889,165.78713499788404,1465.9340659340658
1650546065772.99,165.78713499788404,1523.8095238095236
1650546065773.119,165.78713499788404,1580.2197802197802
1650546065775.6282,165.64693446088793,1635.164835164835
1650546065776.8198,165.78713499788404,1684.249084249084
1650546065802.4248,165.78713499788404,1723.0769230769229
1650546065802.689,165.64693446088793,1753.113553113553
1650546065803.078,165.64693446088793,1770.6959706959706
1650546065825.77,165.64693446088793,1773.6263736263736
1650546065826.008,165.50697084917616,1765.5677655677655
1650546065826.074,165.50697084917616,1746.5201465201465
1650546065834.336,165.50697084917616,1723.8095238095236
1650546065840.646,165.50697084917616,1694.5054945054944
1650546065868.1519,165.50697084917616,1661.5384615384614
1650546065868.261,165.50697084917616,1624.1758241758241
1650546065869.301,165.50697084917616,1586.080586080586
1650546065882.951,165.36724356268468,1548.7179487179485
1650546065884.1392,165.50697084917616,1512.8205128205127
1650546065884.327,165.36724356268468,1481.3186813186812
1650546065901.636,165.2277520033741,1452.7472527472526
1650546065922.9119,165.36724356268468,1427.8388278388277
1650546065923.115,165.36724356268468,1407.3260073260071
1650546065924.344,165.50697084917616,1391.9413919413919
1650546065945.751,165.36724356268468,1381.6849816849815
1650546065946.775,165.36724356268468,1375.091575091575
1650546065947.8892,165.2277520033741,1371.4285714285713
1650546065948.075,165.36724356268468,1370.6959706959706
1650546065973.0898,165.2277520033741,1371.4285714285713
1650546065974.026,165.2277520033741,1370.6959706959706
1650546065974.204,165.2277520033741,1370.6959706959706
1650546066000.405,165.2277520033741,1372.8937728937728
1650546066001.625,165.2277520033741,1378.7545787545787
1650546066005.291,165.2277520033741,1384.6153846153845
1650546066006.673,165.2277520033741,1389.7435897435896
1650546066006.8828,165.2277520033741,1395.6043956043954
1650546066020.373,164.94947368421052,1403.6630036630036
1650546066056.674,165.08849557522123,1408.058608058608
1650546066057.7441,164.94947368421052,1415.3846153846152
1650546066057.8699,165.2277520033741,1421.245421245421
1650546066059.0579,164.94947368421052,1430.7692307692307
1650546066061.862,165.08849557522123,1438.095238095238
1650546066075.264,164.94947368421052,1443.956043956044
1650546066075.419,164.94947368421052,1446.8864468864467
1650546066107.947,164.94947368421052,1446.8864468864467
1650546066108.9858,164.94947368421052,1446.153846153846
1650546066109.098,164.94947368421052,1443.2234432234432
1650546066124.042,165.08849557522123,1438.8278388278388
1650546066125.267,164.81068573832562,1435.164835164835
1650546066126.384,164.94947368421052,1427.106227106227
1650546066140.1118,164.94947368421052,1418.3150183150183
1650546066140.2532,164.94947368421052,1408.7912087912086
1650546066167.899,164.81068573832562,1400.7326007326005
1650546066168.956,164.94947368421052,1389.0109890109889
1650546066184.0251,164.81068573832562,1377.2893772893772
1650546066184.29,164.94947368421052,1364.102564102564
1650546066185.3472,164.81068573832562,1350.9157509157508
1650546066186.356,164.81068573832562,1336.9963369963368
1650546066200.271,164.81068573832562,1324.5421245421244
1650546066200.4548,164.81068573832562,1316.4835164835165
1650546066230.398,164.81068573832562,1308.4249084249084
1650546066231.2979,164.81068573832562,1301.8315018315018
1650546066231.4392,164.672131147541,1297.4358974358975
1650546066246.4312,164.81068573832562,1295.2380952380952
1650546066247.708,164.672131147541,1294.5054945054944
1650546066248.847,164.672131147541,1294.5054945054944
1650546066275.0872,164.672131147541,1295.2380952380952
1650546066275.317,164.672131147541,1298.168498168498
1650546066276.5442,164.672131147541,1301.098901098901
1650546066306.282,164.672131147541,1304.7619047619046
1650546066306.456,164.672131147541,1309.1575091575091
1650546066307.622,164.81068573832562,1313.5531135531135
1650546066308.814,164.53380932381353,1318.6813186813185
1650546066309.9539,164.672131147541,1321.6117216117216
1650546066338.796,164.672131147541,1323.8095238095236
1650546066339.076,164.53380932381353,1326.007326007326
1650546066340.095,164.39571968107427,1326.7399267399267
1650546066363.883,164.672131147541,1326.7399267399267
1650546066364.933,164.53380932381353,1326.007326007326
1650546066365.101,164.53380932381353,1326.007326007326
1650546066366.311,164.39571968107427,1323.8095238095236
1650546066375.042,164.53380932381353,1322.3443223443223
1650546066402.344,164.39571968107427,1320.14652014652
1650546066402.472,164.53380932381353,1316.4835164835165
1650546066424.0588,164.39571968107427,1313.5531135531135
1650546066424.977,164.53380932381353,1310.6227106227104
1650546066428.3171,164.39571968107427,1306.227106227106
1650546066428.523,164.39571968107427,1301.8315018315018
1650546066428.558,164.39571968107427,1298.9010989010987
1650546066436.145,164.39571968107427,1296.7032967032967
1650546066436.303,164.39571968107427,1297.4358974358975
1650546066462.624,164.39571968107427,1295.970695970696
1650546066463.685,164.39571968107427,1296.7032967032967
1650546066487.376,164.39571968107427,1298.168498168498
1650546066487.6511,164.39571968107427,1298.9010989010987
1650546066488.7048,164.39571968107427,1299.6336996336995
1650546066489.9458,164.25786163522014,1300.3663003663003
1650546066498.6082,164.39571968107427,1300.3663003663003
1650546066529.67,164.25786163522014,1301.098901098901
1650546066529.896,164.39571968107427,1301.8315018315018
1650546066529.937,164.25786163522014,1304.0293040293038
1650546066542.358,164.39571968107427,1304.0293040293038
1650546066542.592,164.25786163522014,1304.7619047619046
1650546066543.663,164.25786163522014,1303.2967032967033
1650546066559.372,164.25786163522014,1298.9010989010987
1650546066591.188,164.25786163522014,1295.2380952380952
1650546066591.42,164.39571968107427,1291.5750915750914
1650546066591.4568,164.25786163522014,1290.8424908424909
1650546066596.128,164.25786163522014,1287.9120879120878
1650546066603.562,164.25786163522014,1285.7142857142856
1650546066604.645,164.25786163522014,1282.7838827838827
1650546066604.734,164.25786163522014,1277.6556776556777
1650546066613.737,164.12023460410558,1274.7252747252746
1650546066643.5708,164.12023460410558,1270.3296703296703
1650546066664.738,163.98283800753453,1267.3992673992673
1650546066664.9329,164.25786163522014,1260.8058608058607
1650546066666.028,164.12023460410558,1252.7472527472526
1650546066667.1702,164.12023460410558,1243.956043956044
1650546066668.4612,164.12023460410558,1236.6300366300366
1650546066668.688,164.25786163522014,1228.5714285714284
1650546066678.551,163.98283800753453,1221.245421245421
1650546066704.634,164.12023460410558,1215.3846153846152
1650546066705.875,164.12023460410558,1213.9194139194137
1650546066706.062,164.25786163522014,1216.8498168498168
1650546066723.6072,164.12023460410558,1227.106227106227
1650546066725.706,164.12023460410558,1241.0256410256409
1650546066725.897,164.12023460410558,1255.6776556776556
1650546066725.992,164.12023460410558,1268.8644688644688
1650546066739.957,163.98283800753453,1279.8534798534797
1650546066769.628,164.25786163522014,1289.3772893772893
1650546066769.7761,164.12023460410558,1299.6336996336995
1650546066770.984,164.25786163522014,1312.087912087912
1650546066783.497,164.12023460410558,1326.7399267399267
1650546066784.6938,164.25786163522014,1343.5897435897434
1650546066785.888,164.12023460410558,1365.5677655677655
1650546066786.1519,164.39571968107427,1391.9413919413919
1650546066799.805,164.25786163522014,1425.6410256410256
1650546066827.048,164.25786163522014,1461.5384615384614
1650546066827.197,164.39571968107427,1499.6336996336995
1650546066828.33,164.39571968107427,1537.7289377289376
1650546066844.675,164.25786163522014,1575.091575091575
1650546066845.8918,164.25786163522014,1606.5934065934066
1650546066847.124,164.39571968107427,1632.2344322344322
1650546066847.351,164.39571968107427,1649.8168498168498
1650546066874.682,164.25786163522014,1657.142857142857
1650546066875.737,164.25786163522014,1652.7472527472526
1650546066900.74,164.25786163522014,1639.5604395604394
1650546066900.902,164.39571968107427,1619.7802197802196
1650546066902.101,164.25786163522014,1594.8717948717947
1650546066903.293,164.25786163522014,1565.5677655677655
1650546066917.063,164.25786163522014,1535.5311355311355
1650546066917.233,163.98283800753453,1508.4249084249084
1650546066944.535,164.12023460410558,1482.051282051282
1650546066945.6821,164.25786163522014,1458.6080586080584
1650546066964.484,164.25786163522014,1439.5604395604394
1650546066964.675,164.39571968107427,1422.7106227106226
1650546066965.782,164.12023460410558,1407.3260073260071
1650546066966.943,164.12023460410558,1393.4065934065934
1650546066967.0962,164.25786163522014,1381.6849816849815
1650546067006.999,164.12023460410558,1373.6263736263736
1650546067008.2542,164.12023460410558,1367.032967032967
1650546067018.186,164.12023460410558,1360.4395604395604
1650546067018.323,164.12023460410558,1353.113553113553
1650546067018.3909,163.98283800753453,1346.5201465201465
1650546067019.458,163.98283800753453,1343.5897435897434
1650546067033.241,163.98283800753453,1343.5897435897434
1650546067033.544,163.8456712672522,1345.7875457875457
1650546067040.586,163.98283800753453,1350.9157509157508
1650546067065.585,163.98283800753453,1358.974358974359
1650546067065.731,163.8456712672522,1369.230769230769
1650546067085.561,163.98283800753453,1382.4175824175823
1650546067085.706,163.98283800753453,1398.5347985347985
1650546067086.901,163.8456712672522,1411.7216117216117
1650546067088.0662,163.8456712672522,1422.7106227106226
1650546067116.915,163.98283800753453,1432.9670329670328
1650546067117.1228,163.98283800753453,1440.2930402930401
1650546067118.16,163.98283800753453,1445.4212454212454
1650546067141.722,163.98283800753453,1447.6190476190475
1650546067143.1702,164.12023460410558,1446.8864468864467
1650546067143.385,164.25786163522014,1445.4212454212454
1650546067144.36,164.12023460410558,1443.956043956044
1650546067158.081,164.39571968107427,1442.4908424908424
1650546067159.183,164.53380932381353,1441.7582417582416
1650546067159.4,164.81068573832562,1439.5604395604394
1650546067187.8901,164.81068573832562,1436.6300366300366
1650546067188.026,164.94947368421052,1432.9670329670328
1650546067204.4238,165.36724356268468,1427.106227106227
1650546067204.668,165.64693446088793,1421.9780219780218
1650546067205.54,165.64693446088793,1418.3150183150183
1650546067222.6938,165.92757306226176,1413.9194139194137
1650546067223.0388,166.35031847133757,1409.5238095238094
1650546067246.833,166.4917127071823,1405.8608058608058
1650546067247.977,166.63334751169714,1401.4652014652013
1650546067266.602,166.63334751169714,1397.8021978021977
1650546067267.842,166.77522349936143,1394.8717948717947
1650546067267.955,166.77522349936143,1392.6739926739926
1650546067269.195,166.4917127071823,1392.6739926739926
1650546067278.081,166.77522349936143,1390.4761904761904
1650546067304.477,166.77522349936143,1387.5457875457876
1650546067304.7239,167.202304737516,1385.3479853479853
1650546067321.681,167.3451516445963,1382.4175824175823
1650546067321.886,167.6315789473684,1373.6263736263736
1650546067321.918,167.77516059957173,1364.102564102564
1650546067322.9219,167.9189884269181,1354.5787545787546
1650546067331.818,168.06306306306305,1345.054945054945
1650546067359.304,168.06306306306305,1336.9963369963368
1650546067360.268,168.06306306306305,1333.3333333333333
1650546067360.483,168.20738514383854,1331.8681318681317
1650546067379.2878,168.06306306306305,1334.7985347985348
1650546067380.299,168.20738514383854,1335.5311355311355
1650546067381.5752,168.20738514383854,1336.263736263736
1650546067381.715,168.35195530726256,1336.263736263736
1650546067395.449,168.06306306306305,1336.9963369963368
1650546067425.375,168.20738514383854,1336.9963369963368
1650546067426.544,168.20738514383854,1336.263736263736
1650546067426.709,168.20738514383854,1334.065934065934
1650546067440.403,168.06306306306305,1334.065934065934
1650546067441.63,168.06306306306305,1334.7985347985348
1650546067443.9348,167.9189884269181,1336.263736263736
1650546067444.084,168.06306306306305,1336.9963369963368
1650546067457.804,167.9189884269181,1339.194139194139
1650546067484.093,168.06306306306305,1339.194139194139
1650546067485.141,167.9189884269181,1339.194139194139
1650546067485.268,168.06306306306305,1337.7289377289376
1650546067507.852,167.9189884269181,1336.263736263736
1650546067508.997,167.9189884269181,1332.6007326007325
1650546067510.177,168.06306306306305,1329.6703296703297
1650546067510.3801,168.06306306306305,1328.2051282051282
1650546067537.742,167.9189884269181,1330.4029304029302
1650546067538.909,167.9189884269181,1331.8681318681317
1650546067539.134,168.06306306306305,1332.6007326007325
1650546067563.971,168.06306306306305,1332.6007326007325
1650546067565.2239,167.77516059957173,1334.065934065934
1650546067571.428,167.9189884269181,1334.7985347985348
1650546067571.6829,167.77516059957173,1334.065934065934
1650546067596.518,167.77516059957173,1334.065934065934
1650546067596.781,167.6315789473684,1334.7985347985348
1650546067597.555,167.77516059957173,1332.6007326007325
1650546067597.676,167.77516059957173,1331.8681318681317
1650546067621.611,167.9189884269181,1328.2051282051282
1650546067622.683,167.6315789473684,1325.2747252747251
1650546067623.75,167.77516059957173,1320.8791208791208
1650546067632.625,167.77516059957173,1318.6813186813185
1650546067632.825,167.77516059957173,1317.216117216117
1650546067659.012,167.6315789473684,1316.4835164835165
1650546067659.987,167.77516059957173,1316.4835164835165
1650546067660.1492,167.6315789473684,1315.7509157509157
1650546067680.218,167.6315789473684,1314.2857142857142
1650546067681.378,167.48824283881999,1315.018315018315
1650546067682.4019,167.48824283881999,1314.2857142857142
1650546067696.366,167.48824283881999,1316.4835164835165
1650546067696.613,167.48824283881999,1318.6813186813185
1650546067736.554,167.3451516445963,1323.076923076923
1650546067737.52,167.48824283881999,1324.5421245421244
1650546067738.6191,167.48824283881999,1326.007326007326
1650546067738.679,167.48824283881999,1327.4725274725274
1650546067740.287,167.3451516445963,1329.6703296703297
1650546067748.6838,167.3451516445963,1330.4029304029302
1650546067757.664,167.202304737516,1332.6007326007325
1650546067758.012,167.3451516445963,1332.6007326007325
1650546067786.4858,167.202304737516,1334.065934065934
1650546067789.5789,167.3451516445963,1334.7985347985348
1650546067789.725,167.3451516445963,1342.1245421245421
1650546067807.7322,167.202304737516,1358.974358974359
1650546067808.729,167.202304737516,1386.080586080586
1650546067809.8381,167.202304737516,1421.9780219780218
1650546067838.591,167.202304737516,1465.9340659340658
1650546067838.759,167.0597014925373,1517.9487179487178
1650546067839.951,167.202304737516,1570.6959706959706
1650546067862.4429,167.202304737516,1624.1758241758241
1650546067862.7168,167.202304737516,1674.7252747252746
1650546067863.659,167.0597014925373,1719.4139194139193
1650546067864.922,167.0597014925373,1758.2417582417581
1650546067873.6921,167.202304737516,1788.278388278388
1650546067901.1582,167.0597014925373,1808.058608058608
1650546067901.384,167.3451516445963,1815.3846153846152
1650546067902.3909,167.3451516445963,1812.4542124542124
1650546067923.746,167.3451516445963,1799.9999999999998
1650546067924.829,167.3451516445963,1780.2197802197802
1650546067925.014,167.3451516445963,1755.311355311355
1650546067926.409,167.202304737516,1725.2747252747251
1650546067953.594,167.3451516445963,1689.3772893772893
1650546067953.732,167.3451516445963,1652.0146520146518
1650546067954.7678,167.6315789473684,1610.989010989011
1650546067982.291,167.6315789473684,1572.8937728937728
1650546067983.437,167.77516059957173,1536.9963369963368
1650546067983.574,167.77516059957173,1506.227106227106
1650546067987.295,167.9189884269181,1480.5860805860805
1650546067988.549,167.77516059957173,1460.07326007326
1650546068014.724,167.9189884269181,1442.4908424908424
1650546068015.873,167.77516059957173,1427.8388278388277
1650546068015.9968,167.9189884269181,1416.8498168498168
1650546068036.176,167.9189884269181,1410.989010989011
1650546068037.324,167.77516059957173,1408.7912087912086
1650546068051.039,167.48824283881999,1405.8608058608058
1650546068051.474,167.3451516445963,1402.9304029304028
1650546068052.407,167.0597014925373,1401.4652014652013
1650546068058.6929,166.77522349936143,1400.7326007326005
1650546068084.657,166.63334751169714,1397.8021978021977
1650546068084.801,166.35031847133757,1397.8021978021977
1650546068086.051,166.2091641917692,1402.197802197802
1650546068104.764,166.06824925816022,1408.058608058608
1650546068105.856,166.06824925816022,1413.9194139194137
1650546068105.987,165.92757306226176,1417.5824175824175
1650546068107.217,165.78713499788404,1422.7106227106226
1650546068135.931,165.64693446088793,1427.106227106227
1650546068136.1401,165.64693446088793,1431.5018315018315
1650546068137.198,165.64693446088793,1435.164835164835
1650546068162.2,165.36724356268468,1439.5604395604394
1650546068163.763,165.2277520033741,1441.7582417582416
1650546068170.902,165.2277520033741,1444.6886446886447
1650546068171.138,165.36724356268468,1443.956043956044
1650546068172.132,165.08849557522123,1440.2930402930401
1650546068199.6838,165.08849557522123,1433.6996336996335
1650546068199.981,165.08849557522123,1424.9084249084249
1650546068200.915,165.08849557522123,1414.6520146520145
1650546068222.1638,164.94947368421052,1403.6630036630036
1650546068223.433,164.94947368421052,1392.6739926739926
1650546068224.623,164.94947368421052,1383.8827838827838
1650546068224.781,164.94947368421052,1375.8241758241757
1650546068238.438,164.81068573832562,1369.9633699633698
1650546068265.749,164.94947368421052,1362.6373626373625
1650546068266.9128,164.81068573832562,1357.5091575091574
1650546068267.233,164.672131147541,1354.5787545787546
1650546068283.355,164.81068573832562,1352.3809523809523
1650546068284.4639,164.672131147541,1349.4505494505493
1650546068284.6538,164.81068573832562,1344.3223443223442
1650546068285.803,164.81068573832562,1336.9963369963368
1650546068314.6,164.672131147541,1331.135531135531
1650546068315.614,164.81068573832562,1326.7399267399267
1650546068315.712,164.81068573832562,1321.6117216117216
1650546068342.3818,164.81068573832562,1317.9487179487178
1650546068343.334,164.672131147541,1317.216117216117
1650546068344.5688,164.81068573832562,1314.2857142857142
1650546068349.374,164.81068573832562,1312.087912087912
1650546068349.538,164.81068573832562,1307.6923076923076
1650546068377.042,164.672131147541,1306.9597069597069
1650546068378.0261,164.81068573832562,1304.0293040293038
1650546068399.38,164.94947368421052,1299.6336996336995
1650546068399.569,164.94947368421052,1297.4358974358975
1650546068400.752,164.81068573832562,1298.9010989010987
1650546068401.9102,164.94947368421052,1304.0293040293038
1650546068415.531,165.2277520033741,1309.89010989011
1650546068415.66,165.36724356268468,1315.7509157509157
1650546068442.2158,165.64693446088793,1322.3443223443223
1650546068443.216,165.92757306226176,1328.937728937729
1650546068464.272,165.92757306226176,1335.5311355311355
1650546068464.4438,166.2091641917692,1342.1245421245421
1650546068465.7349,166.06824925816022,1350.18315018315
1650546068466.916,166.2091641917692,1355.3113553113553
1650546068500.669,166.35031847133757,1358.974358974359
1650546068500.8381,166.4917127071823,1361.904761904762
1650546068501.859,166.35031847133757,1364.8351648351647
1650546068522.9758,166.35031847133757,1365.5677655677655
1650546068524.219,166.4917127071823,1364.102564102564
1650546068524.46,166.63334751169714,1361.1721611721612
1650546068525.9458,166.4917127071823,1358.2417582417581
1650546068526.928,166.63334751169714,1352.3809523809523
1650546068568.1008,166.63334751169714,1348.7179487179487
1650546068568.3179,166.63334751169714,1346.5201465201465
1650546068569.269,166.63334751169714,1345.7875457875457
1650546068580.409,166.77522349936143,1345.054945054945
1650546068580.622,166.77522349936143,1343.5897435897434
1650546068581.7969,166.77522349936143,1340.6593406593406
1650546068583.04,166.63334751169714,1337.7289377289376
1650546068591.676,166.63334751169714,1337.7289377289376
1650546068591.865,166.63334751169714,1339.194139194139
1650546068620.563,166.77522349936143,1340.6593406593406
1650546068621.729,166.63334751169714,1342.8571428571427
1650546068641.707,166.77522349936143,1342.8571428571427
1650546068643.248,166.77522349936143,1342.1245421245421
1650546068643.421,166.91734128674904,1339.9267399267399
1650546068644.177,166.63334751169714,1337.7289377289376
1650546068652.905,166.77522349936143,1333.3333333333333
1650546068681.524,166.63334751169714,1328.937728937729
1650546068681.714,166.77522349936143,1326.007326007326
1650546068681.753,166.63334751169714,1325.2747252747251
1650546068698.499,166.63334751169714,1324.5421245421244
1650546068699.008,166.77522349936143,1321.6117216117216
1650546068699.05,166.4917127071823,1319.4139194139193
1650546068700.543,166.4917127071823,1316.4835164835165
1650546068714.202,166.63334751169714,1315.018315018315
1650546068745.206,166.63334751169714,1313.5531135531135
1650546068745.336,166.63334751169714,1310.6227106227104
1650546068746.583,166.35031847133757,1310.6227106227104
1650546068762.726,166.4917127071823,1307.6923076923076
1650546068763.938,166.63334751169714,1306.9597069597069
1650546068764.062,166.63334751169714,1309.1575091575091
1650546068765.38,166.63334751169714,1316.4835164835165
1650546068794.063,166.4917127071823,1326.007326007326
1650546068795.226,166.63334751169714,1336.9963369963368
1650546068795.361,166.77522349936143,1348.7179487179487
1650546068795.396,166.63334751169714,1358.974358974359
1650546068821.416,166.63334751169714,1367.032967032967
1650546068821.602,166.63334751169714,1372.161172161172
1650546068822.775,166.77522349936143,1374.3589743589744
1650546068829.0278,166.63334751169714,1378.021978021978
1650546068855.1582,166.4917127071823,1379.4871794871794
1650546068855.4438,166.35031847133757,1380.952380952381
1650546068856.522,166.35031847133757,1383.150183150183
1650546068881.6099,166.06824925816022,1383.8827838827838
1650546068882.543,165.92757306226176,1387.5457875457876
1650546068891.459,165.92757306226176,1394.8717948717947
1650546068891.645,165.92757306226176,1407.3260073260071
1650546068892.629,165.64693446088793,1427.106227106227
1650546068917.5972,165.50697084917616,1452.7472527472526
1650546068918.8782,165.36724356268468,1487.9120879120878
