Timestamp,GSR,PPG
1650545968379.555,208.64258555133082,0.0
1650545968380.626,208.64258555133082,0.0
1650545968413.012,208.64258555133082,0.0
1650545968414.232,208.64258555133082,0.0
1650545968424.204,208.64258555133082,0.0
1650545968424.429,208.64258555133082,0.0
1650545968425.658,208.64258555133082,0.0
1650545968450.591,208.64258555133082,0.0
1650545968450.778,245.3068252974327,0.0
1650545968451.862,245.3068252974327,0.0
1650545968478.25,245.3068252974327,0.0
1650545968479.479,245.3068252974327,0.0
1650545968489.244,245.3068252974327,0.0
1650545968489.434,245.3068252974327,0.0
1650545968498.104,245.3068252974327,0.0
1650545968528.029,245.3068252974327,0.0
1650545968528.221,245.3068252974327,0.0
1650545968529.368,245.3068252974327,0.0
1650545968543.288,245.3068252974327,0.0
1650545968544.365,245.3712025885314,0.0
1650545968544.565,245.45944973925555,0.0
1650545968545.756,245.45944973925555,0.0
1650545968554.44,245.45944973925555,0.0
1650545968555.5361,245.3712025885314,0.0
1650545968555.687,245.5477603885591,0.0
1650545968582.118,245.5477603885591,0.0
1650545968583.24,245.45944973925555,0.0
1650545968602.032,245.28301886792454,0.0
1650545968603.081,245.3712025885314,0.0
1650545968603.3372,245.45944973925555,0.0
1650545968611.9822,245.5477603885591,0.0
1650545968636.91,245.3712025885314,0.0
1650545968637.1008,245.45944973925555,0.0
1650545968638.23,245.45944973925555,0.0
1650545968667.1592,245.45944973925555,0.0
1650545968668.19,245.3712025885314,0.0
1650545968668.374,245.45944973925555,0.0
1650545968670.87,245.45944973925555,0.0
1650545968672.086,245.5477603885591,0.0
1650545968696.981,245.3712025885314,0.0
1650545968697.163,245.45944973925555,0.0
1650545968698.2988,245.5477603885591,0.0
1650545968727.144,245.45944973925555,0.0
1650545968728.338,245.28301886792454,0.0
1650545968729.481,245.3712025885314,0.0
1650545968729.613,245.45944973925555,0.0
1650545968760.99,245.5477603885591,0.0
1650545968762.0398,245.45944973925555,0.0
1650545968762.1318,245.45944973925555,0.0
1650545968785.951,245.5477603885591,0.0
1650545968788.422,245.5477603885591,0.0
1650545968789.6619,245.45944973925555,0.0
1650545968790.791,245.45944973925555,0.0
1650545968790.9219,245.5477603885591,0.0
1650545968817.2659,245.5477603885591,0.0
1650545968818.485,245.45944973925555,0.0
1650545968818.65,245.5477603885591,0.0
1650545968841.034,245.5477603885591,0.0
1650545968842.204,245.5477603885591,0.0
1650545968843.458,245.45944973925555,0.0
1650545968852.193,245.5477603885591,0.0
1650545968852.319,245.3712025885314,0.0
1650545968877.328,245.5477603885591,0.0
1650545968878.541,245.5477603885591,0.0
1650545968902.3408,245.45944973925555,0.0
1650545968903.443,245.5477603885591,0.0
1650545968903.585,245.45944973925555,0.0
1650545968905.983,245.5477603885591,0.0
1650545968906.138,245.5477603885591,0.0
1650545968914.929,245.3712025885314,0.0
1650545968942.396,245.63613460500272,0.0
1650545968943.4941,245.5477603885591,0.0
1650545968943.644,245.5477603885591,0.0
1650545968961.18,245.63613460500272,0.0
1650545968962.432,245.5477603885591,0.0
1650545968963.647,245.45944973925555,0.0
1650545968977.345,245.5477603885591,0.0
1650545968977.626,245.63613460500272,0.0
1650545969003.706,245.5477603885591,0.0
1650545969004.81,245.5477603885591,0.0
1650545969004.949,245.5477603885591,0.0
1650545969025.053,245.63613460500272,0.0
1650545969026.285,245.5477603885591,0.0
1650545969027.523,245.5477603885591,0.0
1650545969058.737,245.5477603885591,0.0
1650545969058.939,245.45944973925555,0.0
1650545969060.04,245.72457245724573,0.0
1650545969082.428,245.5477603885591,0.0
1650545969082.606,245.63613460500272,0.7326007326007326
1650545969083.74,245.5477603885591,0.0
1650545969084.993,245.72457245724573,0.0
1650545969093.7441,245.5477603885591,0.0
1650545969121.336,245.5477603885591,0.0
1650545969121.498,245.72457245724573,0.0
1650545969122.54,245.72457245724573,0.0
1650545969142.529,245.5477603885591,0.0
1650545969142.7021,245.5477603885591,0.0
1650545969144.0662,245.5477603885591,0.0
1650545969145.104,245.72457245724573,0.0
1650545969158.7788,245.5477603885591,0.0
1650545969158.996,245.63613460500272,0.0
1650545969184.0269,245.72457245724573,0.0
1650545969185.1821,245.63613460500272,0.0
1650545969207.556,245.63613460500272,0.0
1650545969207.748,245.63613460500272,0.0
1650545969208.879,245.63613460500272,0.0
1650545969217.801,245.72457245724573,0.0
1650545969245.0718,245.63613460500272,0.0
1650545969245.241,245.72457245724573,0.0
1650545969246.454,245.72457245724573,0.0
1650545969262.796,245.81307401404646,0.0
1650545969263.8918,245.63613460500272,0.0
1650545969264.087,245.63613460500272,0.0
1650545969265.2222,245.5477603885591,0.0
1650545969267.7878,245.81307401404646,0.0
1650545969296.5022,245.63613460500272,0.0
1650545969297.595,245.81307401404646,0.0
1650545969297.718,245.81307401404646,0.0
1650545969321.78,245.81307401404646,0.0
1650545969322.627,245.63613460500272,0.0
1650545969322.714,245.63613460500272,0.0
1650545969323.968,245.72457245724573,0.0
1650545969332.916,245.81307401404646,0.0
1650545969357.713,245.63613460500272,0.0
1650545969357.979,245.72457245724573,0.0
1650545969359.104,245.81307401404646,0.0
1650545969384.709,245.81307401404646,0.0
1650545969384.9238,245.63613460500272,0.0
1650545969385.036,245.72457245724573,0.0
1650545969385.118,245.72457245724573,0.0
1650545969399.2432,245.81307401404646,0.0
1650545969425.2952,245.72457245724573,0.0
1650545969425.471,245.72457245724573,0.0
1650545969426.657,245.81307401404646,0.0
1650545969445.416,245.72457245724573,0.0
1650545969446.595,245.72457245724573,0.0
1650545969446.835,245.72457245724573,0.0
1650545969447.9722,245.81307401404646,0.0
1650545969456.742,245.81307401404646,0.0
1650545969482.823,245.72457245724573,0.0
1650545969482.986,245.81307401404646,0.0
1650545969484.122,245.81307401404646,0.0
1650545969500.48,245.81307401404646,0.0
1650545969501.662,245.63613460500272,0.0
1650545969501.8599,245.72457245724573,0.0
1650545969510.479,245.81307401404646,0.0
1650545969519.2349,245.81307401404646,0.0
1650545969545.489,245.81307401404646,0.0
1650545969545.781,245.81307401404646,0.0
1650545969546.811,245.90163934426232,0.0
1650545969563.4402,245.81307401404646,0.0
1650545969565.2249,245.63613460500272,0.0
1650545969565.585,245.81307401404646,0.0
1650545969573.014,245.81307401404646,0.0
1650545969598.075,245.81307401404646,0.0
1650545969599.2998,245.81307401404646,0.0
1650545969621.737,245.81307401404646,0.0
1650545969621.919,245.81307401404646,0.0
1650545969623.1,245.63613460500272,0.0
1650545969624.228,245.81307401404646,0.0
1650545969624.422,245.72457245724573,0.0
1650545969638.111,245.63613460500272,0.0
1650545969663.19,245.81307401404646,0.0
1650545969664.286,245.72457245724573,0.0
1650545969664.5269,245.81307401404646,0.0
1650545969683.1511,245.81307401404646,0.0
1650545969684.3928,245.81307401404646,0.0
1650545969709.614,245.72457245724573,0.0
1650545969709.906,245.72457245724573,0.0
1650545969710.1418,245.63613460500272,0.0
1650545969710.829,245.90163934426232,0.0
1650545969736.85,245.81307401404646,0.0
1650545969737.008,245.72457245724573,0.0
1650545969738.173,245.90163934426232,0.0
1650545969749.5151,245.81307401404646,0.0
1650545969750.591,245.72457245724573,0.0
1650545969750.7341,245.90163934426232,0.0
1650545969759.4421,245.90163934426232,0.0
1650545969789.612,245.81307401404646,0.0
1650545969798.176,245.81307401404646,0.0
1650545969798.363,245.81307401404646,0.0
1650545969799.4968,245.81307401404646,0.0
1650545969800.735,245.81307401404646,0.0
1650545969814.387,245.72457245724573,0.0
1650545969814.6392,245.90163934426232,0.0
1650545969842.07,245.90163934426232,0.0
1650545969843.3188,245.81307401404646,0.0
1650545969867.0298,245.72457245724573,0.0
1650545969867.268,245.72457245724573,0.0
1650545969868.3938,245.81307401404646,0.0
1650545969869.695,245.81307401404646,0.0
1650545969870.764,245.72457245724573,0.0
1650545969870.881,245.72457245724573,0.0
1650545969897.1528,245.72457245724573,0.0
1650545969898.4211,245.90163934426232,0.0
1650545969923.465,245.72457245724573,0.0
1650545969924.588,245.72457245724573,0.0
1650545969924.736,245.81307401404646,0.0
1650545969929.7732,245.81307401404646,0.0
1650545969930.815,245.72457245724573,0.0
1650545969931.051,245.72457245724573,0.0
1650545969956.002,245.81307401404646,0.0
1650545969957.17,245.81307401404646,0.0
1650545969982.093,245.63613460500272,0.0
1650545969982.3079,245.72457245724573,0.0
1650545969983.488,245.72457245724573,0.0
1650545969984.797,245.72457245724573,0.0
1650545969999.768,245.5477603885591,0.0
1650545969999.9758,245.72457245724573,0.0
1650545970024.773,245.81307401404646,0.0
1650545970025.9841,245.72457245724573,0.0
1650545970044.659,245.63613460500272,0.0
1650545970044.858,245.63613460500272,0.0
1650545970046.0151,245.72457245724573,0.0
1650545970051.009,245.72457245724573,0.0
1650545970076.011,245.63613460500272,0.0
1650545970076.262,245.72457245724573,0.0
1650545970077.314,245.72457245724573,0.0
1650545970103.555,245.72457245724573,0.0
1650545970104.681,245.5477603885591,0.0
1650545970104.789,245.63613460500272,0.0
1650545970108.5789,245.63613460500272,0.0
1650545970114.826,245.63613460500272,0.0
1650545970149.889,245.45944973925555,0.0
1650545970150.039,245.5477603885591,0.0
1650545970151.0789,245.5477603885591,0.0
1650545970163.786,245.63613460500272,0.0
1650545970164.8918,245.45944973925555,0.0
1650545970170.998,245.45944973925555,0.0
1650545970171.1372,245.5477603885591,0.0
1650545970177.3901,245.5477603885591,0.0
1650545970202.322,245.45944973925555,0.0
1650545970202.434,245.45944973925555,0.0
1650545970203.6409,245.5477603885591,0.0
1650545970222.419,245.45944973925555,0.0
1650545970223.645,245.3712025885314,0.0
1650545970224.7788,245.3712025885314,0.0
1650545970224.932,245.45944973925555,0.0
1650545970238.7112,245.28301886792454,0.0
1650545970263.58,245.3712025885314,0.0
1650545970263.725,245.45944973925555,0.0
1650545970264.9119,245.3712025885314,0.0
1650545970287.491,245.3712025885314,0.0
1650545970288.6099,245.28301886792454,0.0
1650545970288.7722,245.3712025885314,0.0
1650545970289.9958,245.3712025885314,0.0
1650545970331.272,245.3712025885314,0.0
1650545970332.374,245.28301886792454,0.0
1650545970332.481,245.28301886792454,0.0
1650545970341.299,245.3712025885314,0.0
1650545970343.045,245.28301886792454,0.0
1650545970343.626,245.19489850907132,0.0
1650545970343.6948,245.19489850907132,0.0
1650545970357.5498,245.10684144370626,0.0
1650545970383.8179,245.19489850907132,0.0
1650545970384.9512,245.10684144370626,0.0
1650545970385.118,245.19489850907132,0.0
1650545970406.439,245.10684144370626,0.0
1650545970407.561,245.19489850907132,0.0
1650545970408.7378,245.10684144370626,0.0
1650545970408.893,245.01884760366184,0.0
1650545970417.681,245.10684144370626,0.0
1650545970445.116,245.10684144370626,0.0
1650545970465.007,245.01884760366184,0.0
1650545970465.119,245.01884760366184,0.0
1650545970466.388,245.01884760366184,0.0
1650545970467.609,245.01884760366184,0.0
1650545970468.8662,244.84304932735427,0.0
1650545970497.5469,244.9309169208685,0.0
1650545970497.665,244.84304932735427,0.0
1650545970498.898,245.01884760366184,0.0
1650545970522.9531,244.84304932735427,0.0
1650545970523.129,244.84304932735427,0.0
1650545970524.0222,244.75524475524477,0.0
1650545970525.1929,244.84304932735427,0.0
1650545970550.222,244.75524475524477,0.0
1650545970550.4702,244.75524475524477,0.0
1650545970551.432,244.84304932735427,0.0
1650545970579.077,244.75524475524477,0.0
1650545970580.062,244.57982440422865,0.0
1650545970580.102,244.75524475524477,0.0
1650545970592.843,244.75524475524477,0.0
1650545970594.357,244.6675031367629,0.0
1650545970595.219,244.4922084900591,0.0
1650545970620.196,244.57982440422865,0.0
1650545970620.306,244.57982440422865,0.0
1650545970622.921,244.6675031367629,0.0
1650545970646.5918,244.4922084900591,0.0
1650545970646.8489,244.4922084900591,0.0
1650545970647.82,244.57982440422865,0.0
1650545970649.099,244.4922084900591,0.0
1650545970657.969,244.40465532676814,0.0
1650545970682.7231,244.40465532676814,0.0
1650545970682.909,244.40465532676814,0.0
1650545970684.103,244.40465532676814,0.0
1650545970705.362,244.2297369833602,0.0
1650545970705.6611,244.2297369833602,0.0
1650545970706.825,244.3171648469662,0.0
1650545970707.9229,244.3171648469662,0.0
1650545970732.861,244.14237166875338,0.0
1650545970733.112,244.2297369833602,0.0
1650545970734.159,244.2297369833602,0.0
1650545970760.4102,244.14237166875338,0.0
1650545970761.6191,244.05506883604508,0.0
1650545970761.903,244.05506883604508,0.0
1650545970774.2642,244.05506883604508,0.0
1650545970775.444,244.05506883604508,0.0
1650545970780.411,243.9678284182306,0.0
1650545970780.724,243.9678284182306,0.0
1650545970805.4358,243.9678284182306,0.0
1650545970806.688,243.9678284182306,0.0
1650545970825.386,243.88065034840096,0.0
1650545970825.594,243.88065034840096,0.0
1650545970826.69,243.88065034840096,0.0
1650545970831.706,243.88065034840096,0.0
1650545970861.686,243.79353455974282,0.0
1650545970862.0068,243.79353455974282,0.0
1650545970862.214,243.79353455974282,0.0
1650545970886.783,243.79353455974282,0.0
1650545970887.913,243.61948955916475,0.0
1650545970888.031,243.61948955916475,0.0
1650545970889.184,243.61948955916475,0.0
1650545970898.0688,243.61948955916475,0.0
1650545970924.382,243.44569288389516,0.0
1650545970925.442,243.44569288389516,0.0
1650545970925.9592,243.5325602140946,0.0
1650545970945.8398,243.5325602140946,0.0
1650545970946.6829,243.35888750222858,0.0
1650545970946.79,243.35888750222858,0.0
1650545970948.067,243.35888750222858,0.0
1650545970974.3408,243.35888750222858,0.0
1650545970975.416,243.27214400285158,0.0
1650545970975.503,243.1854623196152,0.0
1650545971000.635,243.35888750222858,0.0
1650545971001.948,243.09884238646484,0.0
1650545971013.166,243.01228413743993,0.0
1650545971013.397,243.1854623196152,0.0
1650545971014.369,243.1854623196152,0.0
1650545971019.398,243.1854623196152,0.0
1650545971045.749,243.01228413743993,0.0
1650545971047.2778,243.09884238646484,0.0
1650545971047.525,243.09884238646484,0.0
1650545971064.554,243.09884238646484,0.0
1650545971065.575,242.83935242839354,0.0
1650545971065.678,242.9257875066738,0.0
1650545971074.439,242.9257875066738,54.21245421245421
1650545971100.677,242.9257875066738,202.93040293040292
1650545971101.9438,242.83935242839354,389.7435897435897
1650545971126.958,242.75297883691982,590.4761904761905
1650545971127.1711,242.83935242839354,792.6739926739926
1650545971128.233,242.75297883691982,986.080586080586
1650545971130.808,242.5804158521415,1167.032967032967
1650545971131.074,242.66666666666669,1328.937728937729
1650545971131.9521,242.5804158521415,1470.3296703296703
1650545971158.404,242.5804158521415,1589.0109890109889
1650545971159.559,242.4942263279446,1681.3186813186812
1650545971184.4238,242.4942263279446,1749.4505494505493
1650545971184.684,242.4942263279446,1794.8717948717947
1650545971185.735,242.4942263279446,1822.7106227106226
1650545971186.86,242.40809802876933,1831.5018315018315
1650545971186.978,242.3220308894017,1824.1758241758241
1650545971200.784,242.1500798296966,1805.8608058608058
1650545971228.293,242.40809802876933,1775.8241758241757
1650545971229.5498,242.23602484472048,1737.7289377289376
1650545971245.7732,242.23602484472048,1695.2380952380952
1650545971245.928,242.23602484472048,1649.8168498168498
1650545971247.071,242.3220308894017,1603.6630036630036
1650545971248.172,242.1500798296966,1562.6373626373625
1650545971248.2878,242.1500798296966,1521.6117216117216
1650545971278.385,241.97837262896647,1489.3772893772893
1650545971279.592,242.1500798296966,1462.2710622710622
1650545971304.614,242.0641957793935,1441.0256410256409
1650545971305.738,242.0641957793935,1424.1758241758241
1650545971305.9011,241.97837262896647,1410.2564102564102
1650545971307.204,242.1500798296966,1400.0
1650545971312.0142,241.97837262896647,1394.139194139194
1650545971312.1272,241.97837262896647,1389.7435897435896
1650545971347.135,241.97837262896647,1386.8131868131868
1650545971348.34,241.97837262896647,1382.4175824175823
1650545971366.078,241.8926103136629,1380.952380952381
1650545971367.042,241.80690876882196,1377.2893772893772
1650545971367.292,241.80690876882196,1375.8241758241757
1650545971368.378,241.80690876882196,1374.3589743589744
1650545971377.234,241.72126792987424,1377.2893772893772
1650545971377.435,241.63568773234198,1381.6849816849815
1650545971402.2861,241.80690876882196,1388.278388278388
1650545971427.301,241.72126792987424,1394.8717948717947
1650545971429.1821,241.63568773234198,1404.3956043956043
1650545971435.832,241.5501681118386,1411.7216117216117
1650545971435.944,241.63568773234198,1419.047619047619
1650545971437.112,241.63568773234198,1427.8388278388277
1650545971438.3162,241.46470900406862,1436.6300366300366
1650545971438.442,241.5501681118386,1443.956043956044
1650545971464.8262,241.37931034482756,1449.8168498168498
1650545971466.0698,241.5501681118386,1449.8168498168498
1650545971482.167,241.37931034482756,1449.084249084249
1650545971482.481,241.37931034482756,1444.6886446886447
1650545971483.4858,241.46470900406862,1439.5604395604394
1650545971497.273,241.46470900406862,1432.2344322344322
1650545971498.3252,241.29397207000176,1424.1758241758241
1650545971498.467,241.29397207000176,1414.6520146520145
1650545971524.83,241.2086941155681,1404.3956043956043
1650545971526.0771,241.29397207000176,1394.139194139194
1650545971547.373,241.12347641759405,1384.6153846153845
1650545971548.435,241.2086941155681,1375.091575091575
1650545971548.5598,241.2086941155681,1367.7655677655678
1650545971549.771,241.12347641759405,1361.1721611721612
1650545971582.366,241.03831891223732,1354.5787545787546
1650545971582.471,241.03831891223732,1346.5201465201465
1650545971583.631,241.12347641759405,1339.194139194139
1650545971605.053,241.03831891223732,1333.3333333333333
1650545971605.928,240.9532215357458,1328.2051282051282
1650545971606.061,240.9532215357458,1323.8095238095236
1650545971607.2568,240.9532215357458,1317.9487179487178
1650545971616.343,240.86818422445737,1313.5531135531135
1650545971643.506,240.78320691479976,1310.6227106227104
1650545971643.718,240.86818422445737,1307.6923076923076
1650545971644.868,240.86818422445737,1302.5641025641025
1650545971667.361,240.78320691479976,1297.4358974358975
1650545971668.624,240.61343204653622,1292.3076923076922
1650545971669.789,240.61343204653622,1287.9120879120878
1650545971669.906,240.6982895432904,1285.7142857142856
1650545971678.7668,240.61343204653622,1284.9816849816848
1650545971703.5571,240.52863436123346,1284.9816849816848
1650545971703.696,240.52863436123346,1286.4468864468863
1650545971708.773,240.52863436123346,1288.6446886446886
1650545971723.685,240.52863436123346,1293.040293040293
1650545971724.966,240.3592181722134,1298.168498168498
1650545971726.0562,240.3592181722134,1304.0293040293038
1650545971726.186,240.3592181722134,1309.1575091575091
1650545971741.563,240.19004047158188,1312.8205128205127
1650545971764.82,240.19004047158188,1315.7509157509157
1650545971764.9382,240.27459954233407,1315.7509157509157
1650545971766.123,240.19004047158188,1316.4835164835165
1650545971783.969,240.19004047158188,1317.216117216117
1650545971784.152,240.0211007561104,1317.9487179487178
1650545971784.193,240.0211007561104,1315.7509157509157
1650545971792.604,239.93671998593777,1312.087912087912
1650545971817.6738,239.93671998593777,1309.89010989011
1650545971818.879,239.76813630774635,1307.6923076923076
1650545971819.1199,239.76813630774635,1303.2967032967033
1650545971843.78,239.76813630774635,1298.168498168498
1650545971844.975,239.68393327480246,1293.7728937728937
1650545971854.167,239.51570450956308,1289.3772893772893
1650545971884.929,239.51570450956308,1284.9816849816848
1650545971885.0552,239.51570450956308,1283.5164835164835
1650545971886.2642,239.51570450956308,1282.051282051282
1650545971904.959,239.34771173066807,1280.5860805860805
1650545971905.101,239.26380368098157,1279.8534798534797
1650545971906.271,239.34771173066807,1280.5860805860805
1650545971907.6309,239.26380368098157,1280.5860805860805
1650545971908.6821,239.09616395165526,1282.051282051282
1650545971908.812,239.09616395165526,1280.5860805860805
1650545971933.877,238.9287589707684,1278.3882783882782
1650545971935.07,238.9287589707684,1276.1904761904761
1650545971969.5698,238.84514435695536,1276.923076923077
1650545971969.76,238.76158824558334,1279.8534798534797
1650545971969.823,238.76158824558334,1282.7838827838827
1650545971970.163,238.67809057527538,1285.7142857142856
1650545971971.38,238.511270312773,1287.179487179487
1650545971980.177,238.42794759825327,1284.9816849816848
1650545971980.372,238.26147669750392,1279.8534798534797
1650545972005.148,238.42794759825327,1273.9926739926739
1650545972006.255,238.17832838946083,1269.5970695970695
1650545972006.389,238.09523809523807,1268.131868131868
1650545972026.4631,238.17832838946083,1268.8644688644688
1650545972030.364,238.09523809523807,1273.9926739926739
1650545972030.504,237.84631468897018,1284.9816849816848
1650545972055.0872,237.84631468897018,1303.2967032967033
1650545972055.288,237.84631468897018,1334.7985347985348
1650545972056.395,237.76345584392962,1375.091575091575
1650545972081.433,237.59791122715404,1425.6410256410256
1650545972081.647,237.43259697338667,1484.2490842490843
1650545972082.69,237.51522533495736,1547.2527472527472
1650545972088.987,237.43259697338667,1609.5238095238094
1650545972090.2358,237.18505647263248,1668.8644688644688
1650545972121.423,237.18505647263248,1721.6117216117216
1650545972121.644,237.10265763418445,1769.230769230769
1650545972122.7131,237.02031602708803,1807.3260073260071
1650545972142.7131,236.77363399826538,1836.6300366300366
1650545972143.048,236.77363399826538,1850.5494505494505
1650545972143.975,236.77363399826538,1853.4798534798533
1650545972146.547,236.60946437857513,1844.6886446886447
1650545972161.425,236.44552225879093,1826.3736263736262
1650545972161.615,236.44552225879093,1797.069597069597
1650545972191.587,236.36363636363637,1761.9047619047617
1650545972192.737,236.28180716634932,1721.6117216117216
1650545972208.044,236.1183186299948,1679.8534798534797
1650545972208.206,236.03665917343938,1635.8974358974358
1650545972209.018,236.03665917343938,1594.8717948717947
1650545972215.27,235.95505617977528,1558.974358974359
1650545972241.528,235.71058539112417,1525.2747252747251
1650545972241.74,235.62920766442258,1495.2380952380952
1650545972242.706,235.5478861087144,1471.7948717948716
1650545972242.9258,235.46662066586165,1453.4798534798533
1650545972263.9822,235.38541127780653,1439.5604395604394
1650545972264.173,235.22316043425815,1427.106227106227
1650545972265.2668,235.1421188630491,1417.5824175824175
1650545972274.044,235.0611331152058,1410.2564102564102
1650545972304.1821,234.81851023567864,1402.9304029304028
1650545972305.1802,234.737747205503,1396.3369963369962
1650545972305.274,234.65703971119135,1392.6739926739926
1650545972324.2148,234.57638769548032,1388.278388278388
1650545972325.344,234.33476394849785,1389.0109890109889
1650545972325.51,234.25433327612836,1389.7435897435896
1650545972327.83,234.25433327612836,1392.6739926739926
1650545972336.574,234.093637454982,1397.069597069597
1650545972362.873,233.9331619537275,1402.9304029304028
1650545972363.3699,233.85300668151447,1410.2564102564102
1650545972364.125,233.77290631957527,1420.5128205128203
1650545972386.769,233.61287010097553,1431.5018315018315
1650545972391.738,233.45305284761417,1439.5604395604394
1650545972391.904,233.37322619251154,1447.6190476190475
1650545972391.9539,233.29345411040848,1453.4798534798533
1650545972414.17,233.134073441503,1457.8754578754579
1650545972415.3171,232.8954103395325,1461.5384615384614
1650545972415.4119,232.8159645232816,1463.003663003663
1650545972444.3071,232.73657289002557,1463.003663003663
1650545972445.379,232.65723538435316,1460.8058608058607
1650545972446.555,232.41954707985698,1457.8754578754579
1650545972446.6519,232.34042553191492,1449.8168498168498
1650545972447.9211,232.26135783563043,1436.6300366300366
1650545972461.8162,231.94562446898897,1422.7106227106226
1650545972492.978,231.94562446898897,1405.128205128205
1650545972494.581,231.86682520808563,1388.278388278388
1650545972494.771,231.7093872008148,1372.161172161172
1650545972504.3262,231.63074834549468,1356.7765567765566
1650545972505.344,231.39515172063062,1342.8571428571427
1650545972505.758,231.3167259786477,1329.6703296703297
1650545972510.429,231.2383533796375,1320.8791208791208
1650545972535.458,231.08176739461658,1314.2857142857142
1650545972536.7341,230.8472856418062,1312.087912087912
1650545972562.9731,230.76923076923077,1308.4249084249084
1650545972563.188,230.69122866317392,1305.4945054945053
1650545972564.214,230.53538253673366,1298.9010989010987
1650545972574.166,230.3020077610933,1292.3076923076922
1650545972574.296,230.22432113341205,1284.9816849816848
1650545972575.481,230.14668689934246,1281.3186813186812
1650545972605.587,229.9915754001685,1279.120879120879
1650545972606.668,229.75929978118162,1277.6556776556777
1650545972606.7668,229.68197879858658,1275.4578754578754
1650545972624.257,229.60470984020188,1272.5274725274724
1650545972625.601,229.45032778618258,1268.131868131868
1650545972626.641,229.2191435768262,1264.4688644688645
1650545972626.7778,229.2191435768262,1260.8058608058607
1650545972640.5898,228.98842476094617,1262.2710622710622
1650545972667.047,228.9116216669462,1266.6666666666665
1650545972668.061,228.68152119282965,1272.5274725274724
1650545972685.467,228.52837769964844,1279.120879120879
1650545972685.827,228.52837769964844,1283.5164835164835
1650545972686.806,228.37543918353686,1286.4468864468863
1650545972687.9321,228.22270523323857,1287.9120879120878
1650545972688.063,228.14641484205245,1289.3772893772893
1650545972702.104,227.91784939054932,1292.3076923076922
1650545972730.681,227.84176264396592,1293.040293040293
1650545972731.864,227.61380690345172,1293.040293040293
1650545972745.525,227.5379229871645,1291.5750915750914
1650545972745.6428,227.46208965172468,1288.6446886446886
1650545972746.9648,227.3105745212323,1284.9816849816848
1650545972753.0862,227.08367992014638,1281.3186813186812
1650545972753.29,227.08367992014638,1276.923076923077
1650545972761.896,226.8572378261592,1273.260073260073
1650545972786.855,226.78185745140388,1270.3296703296703
1650545972787.958,226.55601659751036,1270.3296703296703
1650545972788.085,226.48083623693378,1270.3296703296703
1650545972805.732,226.405705755515,1270.3296703296703
1650545972807.395,226.18061309030654,1271.062271062271
1650545972813.165,226.03079980129158,1272.5274725274724
1650545972813.3608,226.03079980129158,1276.1904761904761
1650545972844.837,226.03079980129158,1279.8534798534797
1650545972868.288,226.03079980129158,1281.3186813186812
1650545972869.514,226.03079980129158,1280.5860805860805
1650545972871.796,226.03079980129158,1277.6556776556777
1650545972872.019,226.03079980129158,1273.260073260073
1650545972872.05,226.03079980129158,1267.3992673992673
1650545972873.101,226.03079980129158,1263.7362637362637
1650545972873.322,226.03079980129158,1261.5384615384614
1650545972901.5852,226.03079980129158,1262.2710622710622
1650545972901.713,223.98799313893656,1263.003663003663
1650545972924.4941,223.73215305539694,1263.003663003663
1650545972925.668,223.73215305539694,1262.2710622710622
1650545972925.82,223.73215305539694,1260.8058608058607
1650545972927.0862,223.73215305539694,1258.6080586080586
1650545972940.6072,223.47689674843127,1254.9450549450548
1650545972940.737,223.47689674843127,1250.5494505494505
1650545972967.0032,223.47689674843127,1246.8864468864467
1650545972968.271,223.22222222222226,1245.4212454212454
1650545972989.0498,223.22222222222226,1245.4212454212454
1650545972989.373,222.96812749003988,1247.6190476190475
1650545972989.634,222.46166950596253,1256.4102564102564
1650545972990.785,222.7146105741899,1268.131868131868
1650545973015.7522,222.7146105741899,1290.10989010989
1650545973015.9841,222.46166950596253,1322.3443223443223
1650545973017.598,222.46166950596253,1362.6373626373625
1650545973049.733,222.20930232558143,1410.2564102564102
1650545973050.6401,221.957507082153,1467.3992673992673
1650545973050.751,221.957507082153,1528.2051282051282
1650545973052.259,221.957507082153,1589.7435897435896
1650545973053.3901,221.957507082153,1648.3516483516482
1650545973088.249,221.45562464669308,1702.5641025641025
1650545973088.441,221.45562464669308,1748.7179487179485
1650545973089.588,221.45562464669308,1783.150183150183
1650545973107.207,221.45562464669308,1804.3956043956043
1650545973108.215,221.20553359683797,1814.6520146520145
1650545973108.4138,220.95600676818952,1810.989010989011
1650545973109.617,220.95600676818952,1795.6043956043954
1650545973137.436,220.95600676818952,1769.230769230769
1650545973138.217,220.70704225352117,1734.065934065934
1650545973138.3628,220.70704225352117,1693.7728937728937
1650545973165.896,220.70704225352117,1650.5494505494505
1650545973167.0908,220.4586381541925,1608.058608058608
1650545973168.245,220.2107925801012,1567.7655677655678
1650545973168.377,220.4586381541925,1528.2051282051282
1650545973169.604,220.2107925801012,1495.2380952380952
1650545973195.863,219.96350364963507,1466.6666666666665
1650545973197.044,219.96350364963507,1445.4212454212454
1650545973197.266,219.96350364963507,1426.3736263736262
1650545973227.197,219.96350364963507,1413.1868131868132
1650545973228.6191,219.71676948962426,1404.3956043956043
1650545973232.5251,219.47058823529414,1398.5347985347985
1650545973233.393,219.47058823529414,1390.4761904761904
1650545973233.582,219.47058823529414,1380.952380952381
1650545973242.138,219.47058823529414,1370.6959706959706
1650545973268.352,218.9798770262717,1361.904761904762
1650545973268.58,218.9798770262717,1356.7765567765566
1650545973269.969,219.2249580302183,1352.3809523809523
1650545973287.1758,218.9798770262717,1350.18315018315
1650545973288.364,218.73534338358462,1351.6483516483515
1650545973289.628,218.9798770262717,1356.7765567765566
1650545973289.8481,218.73534338358462,1367.7655677655678
1650545973316.251,218.49135527049634,1383.8827838827838
1650545973317.126,218.49135527049634,1399.2673992673992
1650545973317.427,218.49135527049634,1413.9194139194137
1650545973344.893,218.2479108635097,1429.3040293040292
1650545973345.094,218.2479108635097,1442.4908424908424
1650545973354.7969,218.00500834724537,1454.212454212454
1650545973356.457,218.2479108635097,1459.3406593406592
1650545973356.831,217.76264591439684,1464.4688644688645
1650545973384.753,217.76264591439684,1465.9340659340658
1650545973385.885,217.76264591439684,1466.6666666666665
1650545973386.2268,217.76264591439684,1463.003663003663
1650545973408.545,217.76264591439684,1457.142857142857
1650545973409.7258,217.5208217656857,1446.153846153846
1650545973411.029,217.5208217656857,1432.2344322344322
1650545973419.812,217.5208217656857,1413.9194139194137
1650545973419.97,217.27953410981695,1397.069597069597
1650545973448.62,217.27953410981695,1380.952380952381
1650545973449.761,217.27953410981695,1366.3003663003662
1650545973450.017,217.27953410981695,1353.113553113553
1650545973462.238,217.03878116343486,1342.8571428571427
1650545973463.4968,217.03878116343486,1334.7985347985348
1650545973472.255,216.7985611510791,1326.7399267399267
1650545973472.476,216.7985611510791,1317.216117216117
1650545973481.032,216.7985611510791,1309.89010989011
1650545973512.4531,216.7985611510791,1300.3663003663003
1650545973513.387,216.7985611510791,1290.8424908424909
1650545973513.5479,216.7985611510791,1284.9816849816848
1650545973528.666,216.55887230514094,1280.5860805860805
1650545973529.8418,216.55887230514094,1276.1904761904761
1650545973540.994,216.31971286581995,1273.260073260073
1650545973541.158,216.08108108108107,1273.260073260073
1650545973564.82,216.31971286581995,1272.5274725274724
1650545973566.103,216.08108108108107,1272.5274725274724
1650545973585.968,215.84297520661156,1273.260073260073
1650545973586.191,215.84297520661156,1273.9926739926739
1650545973587.403,216.08108108108107,1274.7252747252746
1650545973588.5342,216.08108108108107,1274.7252747252746
1650545973602.31,215.84297520661156,1273.9926739926739
1650545973602.572,215.84297520661156,1275.4578754578754
1650545973628.594,215.60539350577872,1278.3882783882782
1650545973630.188,215.84297520661156,1280.5860805860805
1650545973650.99,215.36833424958766,1283.5164835164835
1650545973651.1682,215.60539350577872,1284.9816849816848
1650545973652.3381,215.60539350577872,1286.4468864468863
1650545973653.5798,215.60539350577872,1288.6446886446886
1650545973654.855,215.36833424958766,1290.10989010989
1650545973681.0679,215.36833424958766,1291.5750915750914
1650545973681.37,215.36833424958766,1291.5750915750914
1650545973682.479,215.36833424958766,1290.8424908424909
1650545973698.673,215.13179571663917,1288.6446886446886
1650545973698.926,215.13179571663917,1285.7142857142856
1650545973699.885,215.13179571663917,1284.2490842490843
1650545973713.748,214.8957761930883,1281.3186813186812
1650545973719.9011,214.6602739726027,1278.3882783882782
1650545973720.399,214.8957761930883,1273.260073260073
1650545973747.388,214.6602739726027,1268.131868131868
1650545973748.6,215.13179571663917,1263.003663003663
1650545973768.552,214.8957761930883,1255.6776556776556
1650545973768.689,214.8957761930883,1248.3516483516482
1650545973769.95,214.6602739726027,1243.956043956044
1650545973771.166,214.6602739726027,1241.0256410256409
1650545973797.555,214.6602739726027,1240.2930402930401
1650545973798.6218,214.6602739726027,1243.2234432234432
1650545973798.914,214.8957761930883,1249.084249084249
1650545973823.711,214.6602739726027,1252.7472527472526
1650545973824.778,214.42528735632183,1257.142857142857
1650545973824.892,214.6602739726027,1257.8754578754579
1650545973826.22,214.42528735632183,1256.4102564102564
1650545973835.168,214.42528735632183,1253.4798534798533
1650545973859.984,214.19081465281573,1252.014652014652
1650545973860.2358,214.42528735632183,1249.8168498168498
1650545973861.229,214.42528735632183,1244.6886446886447
1650545973883.8489,214.42528735632183,1238.095238095238
1650545973884.899,214.19081465281573,1231.5018315018315
1650545973885.133,214.42528735632183,1225.6410256410256
1650545973886.2358,214.42528735632183,1224.9084249084249
1650545973900.352,214.19081465281573,1230.03663003663
1650545973925.107,214.19081465281573,1239.5604395604396
1650545973926.136,214.19081465281573,1255.6776556776556
1650545973926.312,213.95685417804478,1279.8534798534797
1650545973946.2979,214.19081465281573,1312.087912087912
1650545973947.389,213.95685417804478,1356.0439560439559
1650545973947.5369,214.19081465281573,1406.5934065934066
1650545973948.7332,214.19081465281573,1465.201465201465
1650545973963.03,213.95685417804478,1523.0769230769229
1650545973987.606,213.95685417804478,1579.4871794871794
1650545973988.632,213.95685417804478,1632.2344322344322
1650545973988.8052,213.95685417804478,1677.6556776556774
1650545974005.2158,213.95685417804478,1715.7509157509157
1650545974006.1582,213.72340425531914,1743.5897435897434
1650545974006.309,213.95685417804478,1759.7069597069597
1650545974011.312,213.49046321525884,1764.8351648351647
1650545974036.273,213.72340425531914,1753.8461538461538
1650545974037.6,213.72340425531914,1734.7985347985348
1650545974066.197,213.72340425531914,1705.4945054945053
1650545974066.3582,213.95685417804478,1671.7948717948716
1650545974067.57,213.72340425531914,1632.2344322344322
1650545974068.6829,213.72340425531914,1590.4761904761904
1650545974068.823,213.72340425531914,1550.9157509157508
1650545974078.796,213.72340425531914,1512.087912087912
1650545974103.7969,213.95685417804478,1478.3882783882782
1650545974105.0388,213.49046321525884,1449.084249084249
1650545974125.029,213.72340425531914,1425.6410256410256
1650545974125.227,213.72340425531914,1408.7912087912086
1650545974126.3599,213.49046321525884,1396.3369963369962
1650545974127.485,213.49046321525884,1389.7435897435896
1650545974127.6318,213.49046321525884,1383.8827838827838
1650545974141.35,213.25802939575394,1382.4175824175823
1650545974142.926,213.49046321525884,1380.952380952381
1650545974168.8792,213.49046321525884,1380.952380952381
1650545974171.1619,213.49046321525884,1380.952380952381
1650545974171.361,213.49046321525884,1380.952380952381
1650545974185.179,213.49046321525884,1379.4871794871794
1650545974186.434,213.25802939575394,1378.021978021978
1650545974192.6848,213.25802939575394,1377.2893772893772
1650545974201.37,213.49046321525884,1377.2893772893772
1650545974230.245,213.25802939575394,1376.5567765567764
1650545974231.821,213.25802939575394,1376.5567765567764
1650545974246.306,213.49046321525884,1377.2893772893772
1650545974246.657,213.49046321525884,1379.4871794871794
1650545974247.618,213.25802939575394,1383.8827838827838
1650545974248.838,213.25802939575394,1388.278388278388
1650545974249.0571,213.49046321525884,1392.6739926739926
1650545974262.651,213.25802939575394,1399.2673992673992
1650545974295.158,213.25802939575394,1405.128205128205
1650545974296.3,213.02610114192495,1412.4542124542124
1650545974296.4448,213.02610114192495,1416.8498168498168
1650545974305.312,213.02610114192495,1418.3150183150183
1650545974306.4321,213.25802939575394,1417.5824175824175
1650545974315.155,213.02610114192495,1413.9194139194137
1650545974315.353,213.02610114192495,1406.5934065934066
1650545974341.5789,213.25802939575394,1400.0
1650545974342.619,213.25802939575394,1389.7435897435896
1650545974367.793,213.02610114192495,1378.7545787545787
1650545974368.8071,213.25802939575394,1366.3003663003662
1650545974369.0122,213.02610114192495,1354.5787545787546
1650545974370.177,213.02610114192495,1342.8571428571427
1650545974400.0918,213.02610114192495,1331.8681318681317
1650545974400.2432,213.25802939575394,1321.6117216117216
1650545974401.3218,213.02610114192495,1314.2857142857142
1650545974401.4421,213.25802939575394,1309.89010989011
1650545974427.814,213.02610114192495,1306.9597069597069
1650545974428.8582,213.25802939575394,1304.7619047619046
1650545974429.066,213.02610114192495,1304.0293040293038
1650545974430.2139,213.02610114192495,1304.0293040293038
1650545974455.131,213.02610114192495,1304.7619047619046
1650545974455.251,213.02610114192495,1305.4945054945053
1650545974456.435,213.02610114192495,1304.0293040293038
1650545974485.374,213.02610114192495,1299.6336996336995
1650545974486.475,213.02610114192495,1293.040293040293
1650545974490.31,213.02610114192495,1289.3772893772893
1650545974490.529,213.02610114192495,1286.4468864468863
1650545974491.462,213.25802939575394,1284.2490842490843
1650545974524.03,213.02610114192495,1282.051282051282
1650545974524.262,212.79467680608363,1278.3882783882782
1650545974525.507,213.02610114192495,1276.923076923077
1650545974544.033,213.02610114192495,1273.9926739926739
1650545974545.155,213.02610114192495,1275.4578754578754
1650545974545.3489,212.79467680608363,1274.7252747252746
1650545974546.5132,213.02610114192495,1277.6556776556777
1650545974555.328,212.79467680608363,1281.3186813186812
1650545974580.561,212.79467680608363,1284.9816849816848
1650545974580.727,213.02610114192495,1285.7142857142856
1650545974581.612,213.02610114192495,1286.4468864468863
1650545974607.83,213.02610114192495,1283.5164835164835
1650545974611.464,212.79467680608363,1280.5860805860805
1650545974611.608,212.79467680608363,1274.7252747252746
1650545974611.6418,212.79467680608363,1271.7948717948716
1650545974616.633,212.79467680608363,1269.5970695970695
1650545974641.6199,213.02610114192495,1270.3296703296703
1650545974641.8171,212.79467680608363,1271.7948717948716
1650545974643.259,213.02610114192495,1273.260073260073
1650545974670.9841,213.02610114192495,1273.9926739926739
1650545974671.4832,212.79467680608363,1274.7252747252746
1650545974671.557,212.79467680608363,1274.7252747252746
1650545974675.438,213.02610114192495,1273.9926739926739
1650545974676.5571,212.79467680608363,1272.5274725274724
1650545974708.986,212.79467680608363,1269.5970695970695
1650545974709.147,212.79467680608363,1265.2014652014652
1650545974710.409,212.79467680608363,1258.6080586080586
1650545974724.117,213.02610114192495,1251.2820512820513
1650545974725.249,212.79467680608363,1246.8864468864467
1650545974725.5261,212.79467680608363,1242.4908424908424
1650545974734.172,213.02610114192495,1239.5604395604396
1650545974742.852,213.02610114192495,1235.8974358974358
1650545974769.043,212.79467680608363,1233.6996336996335
1650545974769.234,213.02610114192495,1232.967032967033
1650545974770.466,213.02610114192495,1231.5018315018315
1650545974790.4739,213.02610114192495,1229.3040293040292
1650545974791.666,212.79467680608363,1227.8388278388277
1650545974792.797,213.02610114192495,1227.106227106227
1650545974793.05,212.79467680608363,1228.5714285714284
1650545974820.406,212.79467680608363,1231.5018315018315
1650545974821.583,212.79467680608363,1232.2344322344322
1650545974821.744,213.02610114192495,1232.967032967033
1650545974844.2458,212.79467680608363,1233.6996336996335
1650545974845.433,212.56375474769396,1232.967032967033
1650545974848.888,212.79467680608363,1234.4322344322343
1650545974855.3171,212.79467680608363,1235.8974358974358
1650545974855.449,212.79467680608363,1241.0256410256409
1650545974884.877,212.79467680608363,1244.6886446886447
1650545974885.151,212.79467680608363,1248.3516483516482
1650545974885.192,212.79467680608363,1252.014652014652
1650545974909.2122,212.79467680608363,1253.4798534798533
1650545974910.5908,212.56375474769396,1256.4102564102564
1650545974912.998,212.56375474769396,1256.4102564102564
1650545974921.8308,212.56375474769396,1255.6776556776556
1650545974922.052,212.56375474769396,1253.4798534798533
1650545974946.648,212.56375474769396,1252.7472527472526
1650545974947.856,212.56375474769396,1255.6776556776556
1650545974948.031,212.56375474769396,1265.9340659340658
1650545974971.859,212.56375474769396,1280.5860805860805
1650545974974.202,212.56375474769396,1305.4945054945053
1650545974975.455,212.33333333333331,1339.194139194139
1650545974981.623,212.56375474769396,1378.7545787545787
1650545974981.993,212.33333333333331,1424.9084249084249
1650545975012.238,212.56375474769396,1475.4578754578754
1650545975012.824,212.33333333333331,1526.7399267399267
1650545975012.924,212.33333333333331,1575.091575091575
1650545975026.8198,212.33333333333331,1619.047619047619
1650545975027.936,212.56375474769396,1657.8754578754579
1650545975037.509,212.33333333333331,1689.3772893772893
1650545975037.769,212.56375474769396,1709.8901098901097
1650545975061.781,212.33333333333331,1720.8791208791208
1650545975063.049,212.33333333333331,1718.6813186813185
1650545975088.151,212.10341093665403,1708.4249084249084
1650545975088.3738,212.33333333333331,1687.179487179487
1650545975089.204,212.10341093665403,1661.5384615384614
1650545975092.5242,212.10341093665403,1627.8388278388277
1650545975092.924,212.10341093665403,1590.4761904761904
1650545975120.426,212.33333333333331,1552.3809523809523
1650545975120.6218,212.33333333333331,1515.7509157509157
1650545975121.741,212.33333333333331,1482.7838827838827
1650545975145.575,212.10341093665403,1454.212454212454
1650545975145.844,212.33333333333331,1430.03663003663
1650545975148.355,212.33333333333331,1410.989010989011
1650545975160.606,212.33333333333331,1398.5347985347985
1650545975186.807,212.33333333333331,1389.0109890109889
1650545975187.8892,212.10341093665403,1380.952380952381
1650545975188.0332,212.10341093665403,1379.4871794871794
1650545975209.416,212.10341093665403,1378.7545787545787
1650545975212.603,212.10341093665403,1378.021978021978
1650545975212.729,212.10341093665403,1375.8241758241757
1650545975212.77,211.87398593834504,1372.8937728937728
1650545975212.918,212.10341093665403,1370.6959706959706
1650545975221.9329,211.87398593834504,1369.9633699633698
1650545975222.1821,211.87398593834504,1370.6959706959706
1650545975249.8901,211.645056726094,1372.161172161172
1650545975250.958,211.645056726094,1373.6263736263736
1650545975271.7249,211.41662169454938,1375.091575091575
1650545975271.853,211.645056726094,1376.5567765567764
1650545975273.04,211.41662169454938,1380.2197802197802
1650545975274.272,211.645056726094,1384.6153846153845
1650545975283.0369,211.188679245283,1391.9413919413919
1650545975283.298,211.41662169454938,1398.5347985347985
1650545975309.325,211.41662169454938,1405.128205128205
1650545975310.678,211.645056726094,1410.989010989011
1650545975329.198,211.188679245283,1416.8498168498168
1650545975329.33,211.645056726094,1417.5824175824175
1650545975330.512,211.41662169454938,1416.117216117216
1650545975331.74,211.41662169454938,1411.7216117216117
1650545975376.832,211.188679245283,1408.058608058608
1650545975378.0989,211.188679245283,1402.197802197802
1650545975378.259,211.41662169454938,1395.6043956043954
1650545975382.022,211.41662169454938,1389.7435897435896
1650545975382.945,211.188679245283,1383.150183150183
1650545975383.1648,211.188679245283,1376.5567765567764
1650545975384.335,211.41662169454938,1370.6959706959706
1650545975398.174,210.96122778675283,1364.8351648351647
1650545975426.753,211.188679245283,1357.5091575091574
1650545975426.9841,211.188679245283,1351.6483516483515
1650545975428.067,211.188679245283,1347.985347985348
1650545975450.675,211.188679245283,1345.054945054945
1650545975451.694,211.188679245283,1342.1245421245421
1650545975451.825,211.188679245283,1338.4615384615383
1650545975453.1301,211.188679245283,1333.3333333333333
1650545975461.886,211.188679245283,1327.4725274725274
1650545975488.072,210.96122778675283,1323.076923076923
1650545975488.351,211.188679245283,1318.6813186813185
1650545975489.351,211.188679245283,1314.2857142857142
1650545975508.1538,211.41662169454938,1309.1575091575091
1650545975509.217,210.96122778675283,1302.5641025641025
1650545975509.352,211.188679245283,1295.970695970696
1650545975540.6448,211.188679245283,1290.10989010989
1650545975541.8242,210.96122778675283,1286.4468864468863
1650545975566.736,211.188679245283,1283.5164835164835
1650545975567.041,210.96122778675283,1281.3186813186812
1650545975568.202,211.188679245283,1279.8534798534797
1650545975569.3801,211.188679245283,1278.3882783882782
1650545975570.551,210.96122778675283,1278.3882783882782
1650545975570.7878,210.96122778675283,1276.923076923077
1650545975577.029,210.96122778675283,1276.923076923077
1650545975603.18,210.73426573426573,1278.3882783882782
1650545975604.421,210.96122778675283,1279.120879120879
1650545975629.404,210.96122778675283,1279.120879120879
1650545975629.6921,210.96122778675283,1282.051282051282
1650545975630.6912,210.96122778675283,1283.5164835164835
1650545975631.841,210.73426573426573,1284.2490842490843
1650545975631.984,210.96122778675283,1283.5164835164835
1650545975636.938,210.96122778675283,1281.3186813186812
1650545975668.173,210.96122778675283,1278.3882783882782
1650545975669.433,210.96122778675283,1278.3882783882782
1650545975684.279,210.73426573426573,1279.8534798534797
1650545975684.406,210.73426573426573,1282.051282051282
1650545975685.688,210.96122778675283,1282.7838827838827
1650545975686.786,210.96122778675283,1283.5164835164835
1650545975686.909,210.73426573426573,1286.4468864468863
1650545975700.7598,210.73426573426573,1287.9120879120878
1650545975725.734,210.96122778675283,1287.9120879120878
1650545975726.776,210.73426573426573,1287.179487179487
1650545975726.891,210.96122778675283,1283.5164835164835
1650545975749.614,210.96122778675283,1279.120879120879
1650545975750.794,210.73426573426573,1276.1904761904761
1650545975751.802,210.73426573426573,1271.7948717948716
1650545975751.962,210.5077915099409,1267.3992673992673
1650545975777.003,210.73426573426573,1265.9340659340658
1650545975778.3489,210.96122778675283,1267.3992673992673
1650545975805.704,210.96122778675283,1271.062271062271
1650545975805.8728,210.73426573426573,1273.9926739926739
1650545975807.041,210.73426573426573,1276.923076923077
1650545975808.175,210.73426573426573,1279.120879120879
1650545975821.958,210.73426573426573,1282.7838827838827
1650545975822.101,210.73426573426573,1284.9816849816848
1650545975823.202,210.73426573426573,1284.9816849816848
1650545975849.436,210.73426573426573,1282.7838827838827
1650545975850.72,210.73426573426573,1281.3186813186812
1650545975870.5908,210.73426573426573,1280.5860805860805
1650545975870.755,210.73426573426573,1282.051282051282
1650545975873.5771,210.73426573426573,1282.7838827838827
1650545975873.737,210.73426573426573,1283.5164835164835
1650545975873.772,210.96122778675283,1284.2490842490843
1650545975902.0122,210.73426573426573,1284.9816849816848
1650545975903.1948,210.73426573426573,1282.7838827838827
1650545975927.031,210.5077915099409,1281.3186813186812
1650545975928.165,210.96122778675283,1279.8534798534797
1650545975928.3271,210.96122778675283,1281.3186813186812
1650545975929.502,210.73426573426573,1286.4468864468863
1650545975940.763,210.73426573426573,1290.8424908424909
1650545975941.036,210.73426573426573,1293.040293040293
1650545975965.896,210.73426573426573,1295.970695970696
1650545975966.978,210.73426573426573,1298.168498168498
1650545975986.895,210.2818035426731,1301.098901098901
1650545975987.064,210.73426573426573,1303.2967032967033
1650545975989.422,210.96122778675283,1303.2967032967033
1650545975989.6108,210.96122778675283,1301.098901098901
1650545976003.295,210.5077915099409,1301.098901098901
1650545976003.521,210.73426573426573,1302.5641025641025
1650545976028.2432,210.73426573426573,1307.6923076923076
1650545976029.467,210.96122778675283,1317.9487179487178
1650545976048.2668,210.73426573426573,1334.065934065934
1650545976048.838,210.73426573426573,1356.0439560439559
1650545976048.998,210.96122778675283,1386.080586080586
1650545976053.252,210.96122778675283,1421.245421245421
1650545976079.4521,210.96122778675283,1461.5384615384614
1650545976079.611,210.96122778675283,1501.8315018315018
1650545976080.867,210.73426573426573,1542.8571428571427
1650545976105.993,210.96122778675283,1580.9523809523807
1650545976107.003,210.73426573426573,1616.117216117216
1650545976108.154,210.96122778675283,1645.4212454212452
1650545976108.284,210.96122778675283,1668.8644688644688
1650545976117.037,210.96122778675283,1683.5164835164835
1650545976143.261,210.73426573426573,1687.179487179487
1650545976143.476,210.73426573426573,1682.051282051282
1650545976144.594,211.188679245283,1667.3992673992673
1650545976168.545,210.96122778675283,1647.6190476190475
1650545976169.436,210.73426573426573,1621.9780219780218
1650545976169.6738,210.96122778675283,1592.6739926739926
1650545976172.106,210.96122778675283,1560.4395604395604
1650545976180.874,210.96122778675283,1526.7399267399267
1650545976208.3071,210.96122778675283,1494.5054945054944
1650545976208.561,210.96122778675283,1464.4688644688645
1650545976209.585,210.96122778675283,1438.8278388278388
1650545976223.386,210.96122778675283,1416.8498168498168
1650545976224.545,210.96122778675283,1400.0
1650545976230.9019,210.96122778675283,1389.0109890109889
1650545976231.235,210.96122778675283,1383.150183150183
1650545976255.945,211.188679245283,1379.4871794871794
1650545976257.014,210.96122778675283,1379.4871794871794
1650545976257.249,211.188679245283,1380.2197802197802
1650545976284.7942,211.188679245283,1380.952380952381
1650545976285.765,211.188679245283,1380.2197802197802
1650545976286.9822,211.188679245283,1378.7545787545787
1650545976300.9019,210.96122778675283,1375.091575091575
1650545976301.055,211.188679245283,1372.161172161172
1650545976328.344,211.188679245283,1369.230769230769
1650545976329.377,211.188679245283,1368.4981684981683
1650545976329.4402,211.188679245283,1369.230769230769
1650545976351.407,210.96122778675283,1371.4285714285713
1650545976352.032,211.188679245283,1374.3589743589744
1650545976353.3071,211.188679245283,1380.952380952381
1650545976354.475,211.41662169454938,1390.4761904761904
1650545976354.654,211.188679245283,1402.9304029304028
1650545976385.934,211.188679245283,1414.6520146520145
1650545976386.943,211.188679245283,1422.7106227106226
1650545976387.041,211.41662169454938,1427.8388278388277
1650545976408.3591,211.41662169454938,1432.2344322344322
1650545976409.597,211.41662169454938,1432.9670329670328
1650545976410.888,211.41662169454938,1431.5018315018315
1650545976419.569,211.41662169454938,1427.106227106227
1650545976419.7742,211.41662169454938,1419.7802197802198
1650545976444.602,211.41662169454938,1410.989010989011
1650545976445.783,211.41662169454938,1402.9304029304028
1650545976446.007,211.41662169454938,1393.4065934065934
1650545976468.38,211.41662169454938,1383.150183150183
1650545976469.582,211.188679245283,1377.2893772893772
1650545976470.938,211.188679245283,1369.230769230769
1650545976497.049,211.41662169454938,1362.6373626373625
1650545976497.243,211.41662169454938,1354.5787545787546
1650545976498.39,211.41662169454938,1345.7875457875457
1650545976523.367,211.41662169454938,1337.7289377289376
1650545976523.593,211.41662169454938,1331.135531135531
1650545976524.9219,211.645056726094,1323.8095238095236
1650545976528.385,211.645056726094,1317.216117216117
1650545976533.344,211.645056726094,1311.3553113553112
1650545976533.608,211.41662169454938,1304.7619047619046
1650545976558.462,211.41662169454938,1296.7032967032967
1650545976559.594,211.645056726094,1289.3772893772893
1650545976587.024,211.188679245283,1282.7838827838827
1650545976587.156,211.645056726094,1277.6556776556777
1650545976588.434,211.645056726094,1276.923076923077
1650545976589.649,211.41662169454938,1277.6556776556777
1650545976598.4558,211.645056726094,1280.5860805860805
1650545976625.813,211.645056726094,1284.9816849816848
1650545976625.967,211.645056726094,1287.9120879120878
1650545976627.135,211.645056726094,1290.8424908424909
1650545976643.3562,211.645056726094,1293.040293040293
1650545976643.58,211.645056726094,1293.040293040293
1650545976643.666,211.645056726094,1293.7728937728937
1650545976649.71,211.87398593834504,1292.3076923076922
1650545976663.315,211.87398593834504,1290.10989010989
1650545976663.532,211.645056726094,1287.179487179487
1650545976696.066,211.87398593834504,1285.7142857142856
1650545976709.95,211.645056726094,1284.9816849816848
1650545976710.953,211.87398593834504,1284.9816849816848
1650545976711.268,211.87398593834504,1286.4468864468863
1650545976712.367,211.87398593834504,1287.179487179487
1650545976713.438,211.645056726094,1290.10989010989
1650545976740.8718,211.87398593834504,1291.5750915750914
1650545976741.008,211.87398593834504,1295.970695970696
1650545976742.156,211.87398593834504,1296.7032967032967
1650545976767.179,211.87398593834504,1300.3663003663003
1650545976768.286,211.87398593834504,1301.8315018315018
1650545976768.429,212.10341093665403,1300.3663003663003
1650545976769.719,211.87398593834504,1299.6336996336995
1650545976776.072,212.10341093665403,1299.6336996336995
1650545976806.0469,211.87398593834504,1299.6336996336995
1650545976807.122,211.87398593834504,1300.3663003663003
1650545976807.251,211.87398593834504,1297.4358974358975
1650545976824.758,212.10341093665403,1292.3076923076922
1650545976825.814,212.10341093665403,1290.10989010989
1650545976825.919,212.33333333333331,1288.6446886446886
1650545976827.312,212.10341093665403,1288.6446886446886
1650545976836.164,212.10341093665403,1287.179487179487
1650545976862.75,212.10341093665403,1284.9816849816848
1650545976862.896,212.10341093665403,1282.7838827838827
1650545976862.936,212.33333333333331,1282.7838827838827
1650545976886.05,212.10341093665403,1284.9816849816848
1650545976887.024,212.10341093665403,1285.7142857142856
1650545976887.099,212.33333333333331,1286.4468864468863
1650545976888.4028,211.87398593834504,1287.179487179487
1650545976900.706,212.33333333333331,1286.4468864468863
1650545976928.4229,212.33333333333331,1285.7142857142856
1650545976928.643,212.33333333333331,1284.9816849816848
1650545976929.7212,212.33333333333331,1284.2490842490843
1650545976943.511,212.33333333333331,1284.9816849816848
1650545976944.598,212.10341093665403,1286.4468864468863
1650545976944.8062,212.56375474769396,1285.7142857142856
1650545976949.88,212.56375474769396,1282.051282051282
1650545976963.4658,212.56375474769396,1278.3882783882782
1650545976994.748,212.56375474769396,1276.923076923077
1650545976995.8079,212.33333333333331,1276.1904761904761
1650545976995.941,212.56375474769396,1274.7252747252746
1650545977006.106,212.56375474769396,1274.7252747252746
1650545977007.151,212.33333333333331,1276.1904761904761
1650545977007.3062,212.10341093665403,1279.120879120879
1650545977016.106,212.56375474769396,1282.7838827838827
1650545977047.25,212.56375474769396,1287.9120879120878
1650545977048.358,212.56375474769396,1295.970695970696
1650545977048.4978,212.56375474769396,1309.1575091575091
1650545977062.267,212.79467680608363,1330.4029304029302
1650545977063.48,212.79467680608363,1356.7765567765566
1650545977064.6108,212.33333333333331,1388.278388278388
1650545977064.737,212.56375474769396,1423.4432234432234
1650545977078.5078,212.56375474769396,1460.8058608058607
1650545977109.946,212.79467680608363,1498.168498168498
1650545977128.647,212.56375474769396,1534.7985347985348
1650545977129.9182,212.79467680608363,1567.032967032967
1650545977130.165,212.79467680608363,1594.139194139194
1650545977131.0452,212.79467680608363,1613.9194139194137
1650545977132.114,212.79467680608363,1626.3736263736262
1650545977132.262,212.79467680608363,1628.5714285714284
1650545977141.0479,212.79467680608363,1626.3736263736262
1650545977174.8408,212.79467680608363,1618.3150183150183
1650545977176.136,212.79467680608363,1605.8608058608058
1650545977185.9219,212.79467680608363,1586.8131868131868
1650545977186.145,212.79467680608363,1563.3699633699632
1650545977187.215,212.79467680608363,1539.9267399267399
1650545977188.3708,212.79467680608363,1515.7509157509157
1650545977188.53,213.02610114192495,1490.10989010989
1650545977202.3708,212.79467680608363,1466.6666666666665
1650545977227.344,212.79467680608363,1444.6886446886447
1650545977228.511,213.02610114192495,1424.1758241758241
1650545977250.953,213.02610114192495,1405.128205128205
1650545977251.152,213.02610114192495,1391.2087912087911
1650545977252.2449,213.02610114192495,1379.4871794871794
1650545977253.378,213.02610114192495,1370.6959706959706
1650545977253.651,213.02610114192495,1366.3003663003662
1650545977262.365,213.02610114192495,1364.8351648351647
1650545977288.5361,213.02610114192495,1366.3003663003662
1650545977289.591,213.02610114192495,1367.7655677655678
1650545977289.718,213.02610114192495,1367.7655677655678
1650545977304.934,213.25802939575394,1364.8351648351647
1650545977318.647,213.02610114192495,1362.6373626373625
1650545977319.9092,213.25802939575394,1361.1721611721612
1650545977320.093,213.25802939575394,1360.4395604395604
1650545977344.812,213.25802939575394,1359.7069597069597
1650545977346.108,213.25802939575394,1360.4395604395604
1650545977368.436,213.49046321525884,1363.3699633699632
1650545977368.5989,213.49046321525884,1369.9633699633698
1650545977369.882,213.25802939575394,1375.8241758241757
1650545977371.017,213.49046321525884,1379.4871794871794
1650545977379.738,213.49046321525884,1383.150183150183
1650545977379.975,213.49046321525884,1386.080586080586
1650545977406.145,213.49046321525884,1389.0109890109889
1650545977407.285,213.49046321525884,1391.9413919413919
1650545977432.2742,213.49046321525884,1394.8717948717947
1650545977433.653,213.49046321525884,1397.069597069597
1650545977433.926,213.49046321525884,1400.7326007326005
1650545977434.747,213.49046321525884,1401.4652014652013
1650545977441.217,213.49046321525884,1401.4652014652013
1650545977441.4229,213.72340425531914,1398.5347985347985
1650545977467.319,213.49046321525884,1394.8717948717947
1650545977468.485,213.72340425531914,1389.0109890109889
1650545977487.385,213.72340425531914,1380.952380952381
1650545977488.396,213.72340425531914,1371.4285714285713
1650545977488.505,213.72340425531914,1361.904761904762
1650545977489.733,213.72340425531914,1350.9157509157508
1650545977514.738,213.72340425531914,1342.1245421245421
1650545977514.952,213.95685417804478,1332.6007326007325
1650545977516.112,213.95685417804478,1321.6117216117216
1650545977547.283,213.95685417804478,1312.8205128205127
1650545977548.522,213.72340425531914,1306.9597069597069
1650545977552.402,213.72340425531914,1299.6336996336995
1650545977552.5488,213.95685417804478,1293.040293040293
1650545977552.595,213.95685417804478,1290.10989010989
1650545977579.801,213.95685417804478,1287.9120879120878
1650545977580.083,213.95685417804478,1287.9120879120878
1650545977581.137,213.95685417804478,1284.9816849816848
1650545977608.574,213.95685417804478,1284.2490842490843
1650545977609.8198,213.95685417804478,1284.9816849816848
1650545977620.159,213.95685417804478,1284.2490842490843
1650545977620.406,213.95685417804478,1282.051282051282
1650545977621.199,214.19081465281573,1282.051282051282
1650545977649.719,213.95685417804478,1282.7838827838827
1650545977649.865,213.95685417804478,1284.9816849816848
1650545977666.1611,214.19081465281573,1288.6446886446886
1650545977667.317,214.19081465281573,1290.8424908424909
1650545977668.5159,214.19081465281573,1294.5054945054944
1650545977668.683,214.42528735632183,1298.9010989010987
1650545977669.796,214.42528735632183,1300.3663003663003
1650545977683.5261,214.19081465281573,1301.098901098901
1650545977709.6118,214.19081465281573,1300.3663003663003
1650545977709.825,214.42528735632183,1298.168498168498
1650545977709.877,214.42528735632183,1294.5054945054944
1650545977732.383,214.42528735632183,1291.5750915750914
1650545977733.5662,214.19081465281573,1287.9120879120878
1650545977734.7021,214.42528735632183,1287.179487179487
1650545977734.854,214.42528735632183,1289.3772893772893
1650545977743.557,214.42528735632183,1293.040293040293
1650545977769.843,214.42528735632183,1297.4358974358975
1650545977771.1338,214.6602739726027,1299.6336996336995
1650545977786.175,214.6602739726027,1299.6336996336995
1650545977787.277,214.42528735632183,1301.098901098901
1650545977788.5872,214.42528735632183,1303.2967032967033
1650545977795.12,214.6602739726027,1306.227106227106
1650545977795.309,214.6602739726027,1309.1575091575091
1650545977822.357,214.6602739726027,1312.087912087912
1650545977823.4402,214.42528735632183,1316.4835164835165
1650545977823.568,214.8957761930883,1318.6813186813185
1650545977824.862,214.8957761930883,1317.216117216117
1650545977847.822,214.6602739726027,1312.087912087912
1650545977848.645,214.6602739726027,1306.227106227106
1650545977862.235,214.8957761930883,1301.8315018315018
1650545977862.367,214.8957761930883,1298.9010989010987
1650545977863.531,214.8957761930883,1296.7032967032967
1650545977888.603,214.8957761930883,1292.3076923076922
1650545977888.8298,214.8957761930883,1286.4468864468863
1650545977889.832,214.8957761930883,1282.051282051282
1650545977906.143,214.8957761930883,1282.051282051282
1650545977907.176,214.8957761930883,1285.7142857142856
1650545977907.247,214.8957761930883,1289.3772893772893
1650545977921.215,214.8957761930883,1294.5054945054944
1650545977946.2148,214.8957761930883,1299.6336996336995
1650545977947.207,215.13179571663917,1304.7619047619046
1650545977947.336,215.13179571663917,1309.89010989011
1650545977963.6382,215.13179571663917,1312.8205128205127
1650545977964.844,214.8957761930883,1315.7509157509157
1650545977974.09,215.13179571663917,1316.4835164835165
1650545977982.295,215.13179571663917,1317.216117216117
1650545977982.528,215.13179571663917,1317.9487179487178
1650545978009.94,215.13179571663917,1317.9487179487178
1650545978011.069,215.13179571663917,1315.7509157509157
1650545978011.2458,215.36833424958766,1314.2857142857142
1650545978011.283,215.36833424958766,1312.087912087912
1650545978028.664,215.36833424958766,1309.1575091575091
1650545978033.797,215.36833424958766,1305.4945054945053
1650545978034.157,215.13179571663917,1303.2967032967033
1650545978043.722,215.36833424958766,1302.5641025641025
1650545978070.18,215.36833424958766,1303.2967032967033
1650545978071.01,215.13179571663917,1305.4945054945053
1650545978071.165,215.36833424958766,1307.6923076923076
1650545978086.158,215.60539350577872,1314.2857142857142
1650545978087.32,215.36833424958766,1324.5421245421244
1650545978096.436,215.36833424958766,1340.6593406593406
1650545978096.684,215.36833424958766,1364.102564102564
1650545978122.36,215.60539350577872,1389.7435897435896
1650545978123.596,215.60539350577872,1418.3150183150183
1650545978147.285,215.60539350577872,1453.4798534798533
1650545978147.521,215.60539350577872,1493.040293040293
1650545978148.565,215.84297520661156,1531.8681318681317
1650545978149.8489,215.84297520661156,1567.7655677655678
1650545978186.0098,215.60539350577872,1600.0
1650545978186.144,215.60539350577872,1627.8388278388277
1650545978187.3591,215.84297520661156,1646.8864468864467
1650545978209.353,215.84297520661156,1657.8754578754579
1650545978209.6428,215.60539350577872,1660.8058608058607
1650545978209.7039,215.84297520661156,1656.4102564102564
1650545978210.05,215.60539350577872,1643.2234432234432
1650545978211.124,215.84297520661156,1624.1758241758241
1650545978239.785,215.60539350577872,1601.4652014652013
1650545978239.93,215.84297520661156,1576.5567765567764
1650545978241.144,215.84297520661156,1550.9157509157508
1650545978266.24,215.84297520661156,1525.2747252747251
1650545978267.214,215.84297520661156,1498.168498168498
1650545978267.376,215.84297520661156,1471.7948717948716
1650545978272.316,216.08108108108107,1445.4212454212454
1650545978273.6199,216.08108108108107,1422.7106227106226
1650545978302.522,215.84297520661156,1405.128205128205
1650545978302.7861,216.08108108108107,1389.7435897435896
1650545978303.593,216.08108108108107,1377.2893772893772
1650545978329.931,216.08108108108107,1369.9633699633698
1650545978331.065,216.08108108108107,1369.230769230769
1650545978331.213,216.08108108108107,1371.4285714285713
1650545978332.381,216.31971286581995,1372.8937728937728
1650545978337.658,216.31971286581995,1373.6263736263736
1650545978362.46,216.08108108108107,1373.6263736263736
1650545978363.542,216.31971286581995,1376.5567765567764
1650545978363.706,216.31971286581995,1380.2197802197802
1650545978384.9521,216.31971286581995,1383.150183150183
1650545978386.056,216.31971286581995,1383.8827838827838
1650545978386.221,216.31971286581995,1384.6153846153845
1650545978387.367,216.31971286581995,1389.0109890109889
1650545978401.247,216.31971286581995,1393.4065934065934
1650545978429.769,216.31971286581995,1395.6043956043954
1650545978429.929,216.31971286581995,1397.8021978021977
1650545978431.162,216.55887230514094,1398.5347985347985
1650545978448.647,216.31971286581995,1400.7326007326005
1650545978449.782,216.55887230514094,1402.9304029304028
1650545978449.955,216.31971286581995,1404.3956043956043
1650545978457.395,216.31971286581995,1405.128205128205
1650545978496.32,216.7985611510791,1406.5934065934066
1650545978497.313,216.7985611510791,1407.3260073260071
1650545978497.4412,216.7985611510791,1408.7912087912086
1650545978497.487,216.7985611510791,1405.8608058608058
1650545978506.26,216.7985611510791,1403.6630036630036
1650545978507.2278,216.7985611510791,1400.0
1650545978507.3071,216.7985611510791,1396.3369963369962
1650545978514.5112,216.7985611510791,1391.9413919413919
1650545978537.494,216.7985611510791,1386.080586080586
1650545978538.499,216.7985611510791,1379.4871794871794
1650545978538.645,216.7985611510791,1372.8937728937728
1650545978564.925,216.7985611510791,1364.102564102564
1650545978566.343,216.7985611510791,1356.0439560439559
1650545978576.031,216.7985611510791,1348.7179487179487
1650545978576.162,217.03878116343486,1341.3919413919414
1650545978577.345,217.03878116343486,1332.6007326007325
1650545978602.453,217.03878116343486,1324.5421245421244
1650545978603.499,217.03878116343486,1317.9487179487178
1650545978603.646,217.03878116343486,1312.8205128205127
1650545978627.503,217.03878116343486,1306.227106227106
1650545978628.615,216.7985611510791,1302.5641025641025
1650545978629.7668,216.7985611510791,1301.098901098901
1650545978629.935,217.03878116343486,1301.8315018315018
1650545978638.654,216.7985611510791,1303.2967032967033
1650545978663.78,217.27953410981695,1304.0293040293038
1650545978664.909,217.27953410981695,1305.4945054945053
1650545978686.179,217.27953410981695,1305.4945054945053
1650545978686.387,217.27953410981695,1304.7619047619046
1650545978687.773,216.7985611510791,1304.0293040293038
1650545978689.96,217.27953410981695,1302.5641025641025
1650545978691.258,217.27953410981695,1301.098901098901
1650545978716.365,217.27953410981695,1298.168498168498
1650545978717.402,217.27953410981695,1295.970695970696
1650545978743.632,217.27953410981695,1295.970695970696
1650545978744.7742,217.27953410981695,1296.7032967032967
1650545978744.947,217.27953410981695,1296.7032967032967
1650545978761.2031,217.27953410981695,1297.4358974358975
1650545978762.223,217.27953410981695,1298.168498168498
1650545978762.325,217.27953410981695,1298.168498168498
1650545978763.689,217.27953410981695,1298.168498168498
1650545978792.495,217.5208217656857,1298.9010989010987
1650545978793.5269,217.5208217656857,1301.098901098901
1650545978793.675,217.27953410981695,1306.227106227106
1650545978809.9749,217.5208217656857,1306.9597069597069
1650545978811.228,217.5208217656857,1309.1575091575091
1650545978812.281,217.5208217656857,1310.6227106227104
1650545978812.481,217.5208217656857,1312.087912087912
1650545978839.874,217.5208217656857,1311.3553113553112
1650545978841.1929,217.76264591439684,1310.6227106227104
1650545978867.385,217.27953410981695,1308.4249084249084
1650545978868.552,217.5208217656857,1307.6923076923076
1650545978868.744,217.5208217656857,1308.4249084249084
1650545978880.038,217.76264591439684,1306.9597069597069
1650545978880.991,217.27953410981695,1305.4945054945053
1650545978881.0798,217.76264591439684,1303.2967032967033
1650545978909.887,217.76264591439684,1301.098901098901
1650545978911.267,217.5208217656857,1298.168498168498
1650545978928.726,217.5208217656857,1296.7032967032967
1650545978929.778,217.76264591439684,1295.2380952380952
1650545978929.92,217.76264591439684,1295.2380952380952
1650545978931.152,218.00500834724537,1295.2380952380952
1650545978939.909,217.76264591439684,1295.2380952380952
1650545978940.156,217.76264591439684,1296.7032967032967
1650545978964.9402,217.76264591439684,1296.7032967032967
1650545978966.276,217.76264591439684,1298.168498168498
1650545978991.2668,217.76264591439684,1300.3663003663003
1650545978992.247,218.00500834724537,1302.5641025641025
1650545978992.35,218.00500834724537,1304.0293040293038
1650545978996.234,217.76264591439684,1305.4945054945053
1650545979024.8809,217.76264591439684,1307.6923076923076
1650545979025.094,218.00500834724537,1311.3553113553112
1650545979026.238,218.00500834724537,1315.018315018315
1650545979047.646,218.00500834724537,1316.4835164835165
1650545979048.645,218.00500834724537,1317.216117216117
1650545979049.746,218.00500834724537,1317.9487179487178
1650545979049.855,218.2479108635097,1318.6813186813185
1650545979051.238,218.00500834724537,1317.9487179487178
1650545979076.02,218.2479108635097,1317.216117216117
1650545979076.182,218.00500834724537,1315.7509157509157
1650545979077.417,218.2479108635097,1312.8205128205127
1650545979105.5889,218.2479108635097,1311.3553113553112
1650545979105.726,218.00500834724537,1309.89010989011
1650545979105.7651,218.2479108635097,1309.1575091575091
1650545979114.949,218.2479108635097,1310.6227106227104
1650545979116.239,218.00500834724537,1312.087912087912
1650545979142.2688,218.00500834724537,1316.4835164835165
1650545979142.4302,218.2479108635097,1320.14652014652
1650545979143.668,218.00500834724537,1323.076923076923
1650545979167.369,218.2479108635097,1326.7399267399267
1650545979168.671,218.2479108635097,1330.4029304029302
1650545979169.943,218.49135527049634,1338.4615384615383
1650545979170.0781,218.49135527049634,1350.18315018315
1650545979178.653,218.2479108635097,1370.6959706959706
1650545979207.296,218.2479108635097,1396.3369963369962
1650545979207.487,218.49135527049634,1427.106227106227
1650545979208.694,218.49135527049634,1462.2710622710622
1650545979227.3892,218.49135527049634,1498.168498168498
1650545979228.938,218.49135527049634,1537.7289377289376
1650545979229.7659,218.49135527049634,1573.6263736263736
1650545979229.93,218.49135527049634,1605.128205128205
1650545979243.736,218.49135527049634,1632.2344322344322
1650545979268.5708,218.49135527049634,1648.3516483516482
1650545979268.765,218.49135527049634,1657.142857142857
1650545979269.858,218.49135527049634,1657.142857142857
1650545979292.467,218.49135527049634,1651.2820512820513
1650545979293.679,218.49135527049634,1642.4908424908424
1650545979295.2869,218.49135527049634,1627.106227106227
1650545979295.5178,218.73534338358462,1607.3260073260071
1650545979326.241,218.73534338358462,1583.8827838827838
1650545979327.211,218.49135527049634,1558.974358974359
1650545979327.321,218.73534338358462,1534.065934065934
1650545979344.991,218.73534338358462,1512.087912087912
1650545979346.394,218.73534338358462,1493.7728937728937
1650545979347.269,218.73534338358462,1476.1904761904761
1650545979347.433,218.73534338358462,1461.5384615384614
1650545979361.3,218.73534338358462,1448.3516483516482
1650545979386.183,218.73534338358462,1437.3626373626373
1650545979387.2122,218.73534338358462,1430.03663003663
1650545979387.3342,218.73534338358462,1423.4432234432234
1650545979416.467,218.9798770262717,1415.3846153846152
1650545979417.6992,218.9798770262717,1405.128205128205
1650545979418.932,218.49135527049634,1394.8717948717947
1650545979419.802,218.73534338358462,1384.6153846153845
1650545979419.942,218.73534338358462,1374.3589743589744
1650545979444.8708,218.9798770262717,1368.4981684981683
1650545979446.1328,218.73534338358462,1364.8351648351647
1650545979446.257,218.9798770262717,1364.8351648351647
1650545979472.416,218.9798770262717,1367.7655677655678
1650545979473.651,218.73534338358462,1374.3589743589744
1650545979506.247,218.9798770262717,1380.2197802197802
1650545979507.395,218.9798770262717,1389.0109890109889
1650545979507.605,218.9798770262717,1396.3369963369962
1650545979525.022,219.2249580302183,1402.197802197802
1650545979526.023,218.9798770262717,1408.7912087912086
1650545979526.215,219.2249580302183,1415.3846153846152
1650545979527.375,219.2249580302183,1422.7106227106226
1650545979528.564,219.2249580302183,1429.3040293040292
1650545979534.947,219.2249580302183,1432.9670329670328
1650545979543.607,218.9798770262717,1438.8278388278388
1650545979543.8088,219.2249580302183,1441.0256410256409
1650545979568.647,219.2249580302183,1441.0256410256409
1650545979569.714,219.2249580302183,1438.095238095238
1650545979569.842,218.9798770262717,1435.164835164835
1650545979589.8782,219.2249580302183,1431.5018315018315
1650545979591.228,219.2249580302183,1424.9084249084249
1650545979592.4028,219.2249580302183,1415.3846153846152
1650545979618.808,219.2249580302183,1403.6630036630036
1650545979618.9749,219.2249580302183,1391.2087912087911
1650545979619.937,219.2249580302183,1381.6849816849815
1650545979646.095,219.2249580302183,1372.8937728937728
1650545979646.3162,219.2249580302183,1366.3003663003662
1650545979647.396,219.2249580302183,1359.7069597069597
1650545979654.887,219.2249580302183,1353.113553113553
1650545979656.179,219.2249580302183,1350.18315018315
1650545979682.331,219.47058823529414,1347.2527472527472
1650545979682.531,219.2249580302183,1343.5897435897434
1650545979683.6409,219.47058823529414,1339.194139194139
1650545979708.643,219.2249580302183,1334.7985347985348
1650545979708.973,219.47058823529414,1330.4029304029302
1650545979709.9111,219.2249580302183,1325.2747252747251
1650545979716.2249,219.47058823529414,1320.14652014652
1650545979717.333,219.47058823529414,1317.9487179487178
1650545979742.2769,219.47058823529414,1314.2857142857142
1650545979742.422,219.47058823529414,1311.3553113553112
1650545979743.597,219.47058823529414,1309.1575091575091
1650545979764.783,219.47058823529414,1306.227106227106
1650545979764.966,219.2249580302183,1304.0293040293038
1650545979767.364,219.47058823529414,1302.5641025641025
1650545979774.974,219.47058823529414,1302.5641025641025
1650545979803.636,219.47058823529414,1304.0293040293038
1650545979804.668,219.71676948962426,1306.227106227106
1650545979804.7249,219.71676948962426,1308.4249084249084
1650545979829.9912,219.71676948962426,1309.1575091575091
1650545979831.021,219.2249580302183,1309.89010989011
1650545979831.188,219.71676948962426,1311.3553113553112
1650545979832.459,219.71676948962426,1314.2857142857142
1650545979834.1082,219.71676948962426,1314.2857142857142
1650545979861.1729,219.71676948962426,1313.5531135531135
1650545979863.914,219.71676948962426,1312.8205128205127
1650545979864.125,219.71676948962426,1312.087912087912
1650545979886.2441,219.71676948962426,1312.8205128205127
1650545979887.294,219.47058823529414,1313.5531135531135
1650545979887.456,219.71676948962426,1314.2857142857142
1650545979888.652,219.71676948962426,1314.2857142857142
1650545979918.917,219.71676948962426,1315.018315018315
1650545979919.699,219.71676948962426,1315.7509157509157
1650545979919.792,219.71676948962426,1318.6813186813185
1650545979949.913,219.71676948962426,1320.14652014652
1650545979951.498,219.71676948962426,1320.14652014652
1650545979952.21,219.71676948962426,1318.6813186813185
1650545979952.3179,219.96350364963507,1318.6813186813185
1650545979953.6582,219.96350364963507,1319.4139194139193
1650545979962.369,219.96350364963507,1320.8791208791208
1650545979987.244,219.71676948962426,1323.8095238095236
1650545979987.4211,219.71676948962426,1327.4725274725274
1650545979988.606,220.2107925801012,1328.2051282051282
1650545980012.396,219.96350364963507,1327.4725274725274
1650545980013.521,219.71676948962426,1326.7399267399267
1650545980013.683,219.71676948962426,1328.2051282051282
1650545980014.869,219.96350364963507,1326.7399267399267
1650545980052.362,219.96350364963507,1326.007326007326
1650545980053.436,219.71676948962426,1324.5421245421244
1650545980053.564,219.96350364963507,1321.6117216117216
1650545980070.036,219.96350364963507,1318.6813186813185
1650545980071.254,220.2107925801012,1318.6813186813185
1650545980072.1619,219.71676948962426,1320.8791208791208
1650545980072.234,219.96350364963507,1324.5421245421244
1650545980073.731,219.96350364963507,1328.2051282051282
1650545980099.9192,219.71676948962426,1331.8681318681317
1650545980101.147,219.96350364963507,1332.6007326007325
1650545980128.925,220.2107925801012,1331.8681318681317
1650545980129.06,219.96350364963507,1328.937728937729
1650545980129.946,220.2107925801012,1326.7399267399267
1650545980139.8179,219.96350364963507,1323.076923076923
1650545980140.058,220.2107925801012,1321.6117216117216
1650545980141.156,219.96350364963507,1318.6813186813185
1650545980166.188,220.2107925801012,1317.9487179487178
1650545980167.316,220.2107925801012,1318.6813186813185
1650545980188.582,220.2107925801012,1320.8791208791208
1650545980188.738,220.2107925801012,1325.2747252747251
1650545980189.791,220.2107925801012,1336.263736263736
1650545980190.9211,219.96350364963507,1352.3809523809523
1650545980191.053,220.2107925801012,1377.2893772893772
1650545980200.1318,220.2107925801012,1406.5934065934066
1650545980224.831,219.71676948962426,1443.956043956044
1650545980226.0398,219.96350364963507,1484.2490842490843
1650545980226.255,220.2107925801012,1526.7399267399267
1650545980252.423,219.96350364963507,1565.5677655677655
1650545980252.6091,220.2107925801012,1600.7326007326005
1650545980261.174,220.2107925801012,1629.3040293040292
1650545980261.421,219.96350364963507,1650.5494505494505
1650545980262.298,220.2107925801012,1663.7362637362637
1650545980291.163,220.2107925801012,1668.8644688644688
1650545980292.23,220.2107925801012,1669.5970695970695
1650545980292.516,220.2107925801012,1663.003663003663
1650545980306.128,220.2107925801012,1649.084249084249
1650545980307.3262,220.2107925801012,1630.03663003663
1650545980316.043,220.2107925801012,1605.128205128205
1650545980316.261,220.2107925801012,1575.8241758241757
1650545980344.815,220.2107925801012,1545.054945054945
1650545980346.218,220.4586381541925,1514.2857142857142
1650545980369.948,220.2107925801012,1484.9816849816848
1650545980371.1619,220.4586381541925,1456.4102564102564
1650545980371.352,220.2107925801012,1431.5018315018315
1650545980379.9019,220.2107925801012,1410.989010989011
1650545980410.197,220.2107925801012,1394.139194139194
1650545980410.543,220.4586381541925,1381.6849816849815
1650545980410.5889,220.4586381541925,1371.4285714285713
1650545980411.092,220.4586381541925,1364.102564102564
1650545980426.012,220.4586381541925,1358.974358974359
1650545980426.206,220.4586381541925,1356.7765567765566
1650545980427.309,220.2107925801012,1354.5787545787546
1650545980428.536,220.4586381541925,1355.3113553113553
1650545980442.238,220.2107925801012,1356.0439560439559
1650545980442.444,220.2107925801012,1357.5091575091574
1650545980471.2,220.4586381541925,1357.5091575091574
1650545980472.2842,220.4586381541925,1360.4395604395604
1650545980489.5972,220.4586381541925,1364.8351648351647
1650545980489.781,220.4586381541925,1370.6959706959706
1650545980489.821,220.4586381541925,1378.021978021978
1650545980491.11,220.4586381541925,1386.8131868131868
1650545980515.94,220.4586381541925,1397.8021978021977
1650545980516.0789,220.2107925801012,1409.5238095238094
1650545980517.308,220.4586381541925,1418.3150183150183
1650545980543.607,220.4586381541925,1427.8388278388277
1650545980544.781,220.4586381541925,1437.3626373626373
1650545980558.4878,220.4586381541925,1444.6886446886447
1650545980558.668,220.4586381541925,1450.5494505494505
1650545980559.766,220.4586381541925,1455.6776556776556
1650545980560.925,220.4586381541925,1456.4102564102564
1650545980561.058,220.4586381541925,1455.6776556776556
1650545980586.185,220.70704225352117,1448.3516483516482
1650545980587.3,220.4586381541925,1438.8278388278388
1650545980603.697,220.4586381541925,1428.5714285714284
1650545980603.896,220.4586381541925,1417.5824175824175
1650545980604.748,220.4586381541925,1405.128205128205
1650545980618.764,220.70704225352117,1392.6739926739926
1650545980643.47,220.4586381541925,1380.2197802197802
1650545980643.6292,220.4586381541925,1369.9633699633698
1650545980644.764,220.70704225352117,1358.2417582417581
1650545980671.159,220.70704225352117,1349.4505494505493
1650545980672.2468,220.70704225352117,1342.1245421245421
1650545980673.423,220.4586381541925,1334.065934065934
1650545980673.5781,220.4586381541925,1326.7399267399267
1650545980699.807,220.70704225352117,1318.6813186813185
1650545980700.074,220.70704225352117,1312.8205128205127
1650545980700.1418,220.4586381541925,1309.1575091575091
1650545980723.698,220.4586381541925,1306.9597069597069
1650545980724.992,220.70704225352117,1304.0293040293038
1650545980726.167,220.70704225352117,1301.8315018315018
1650545980726.369,220.70704225352117,1298.9010989010987
1650545980732.353,220.70704225352117,1293.7728937728937
1650545980759.8792,220.70704225352117,1292.3076923076922
1650545980760.928,220.70704225352117,1293.7728937728937
1650545980761.144,220.4586381541925,1298.9010989010987
1650545980784.88,220.70704225352117,1301.8315018315018
1650545980786.077,220.70704225352117,1306.227106227106
1650545980788.538,220.70704225352117,1311.3553113553112
1650545980794.6929,220.70704225352117,1316.4835164835165
1650545980794.91,220.4586381541925,1321.6117216117216
1650545980819.8582,220.70704225352117,1326.007326007326
1650545980821.2432,220.70704225352117,1330.4029304029302
1650545980821.547,220.70704225352117,1333.3333333333333
1650545980846.282,220.70704225352117,1335.5311355311355
1650545980847.806,220.4586381541925,1338.4615384615383
1650545980848.498,220.70704225352117,1338.4615384615383
1650545980857.2349,220.70704225352117,1339.194139194139
1650545980857.439,220.70704225352117,1340.6593406593406
1650545980884.878,220.95600676818952,1339.194139194139
1650545980885.866,220.70704225352117,1336.263736263736
1650545980885.946,220.95600676818952,1332.6007326007325
1650545980904.9512,220.70704225352117,1330.4029304029302
1650545980906.0781,220.95600676818952,1327.4725274725274
1650545980907.216,220.95600676818952,1324.5421245421244
1650545980932.145,220.4586381541925,1320.8791208791208
1650545980932.282,220.70704225352117,1317.216117216117
1650545980933.5142,220.70704225352117,1315.018315018315
1650545980958.384,220.95600676818952,1315.7509157509157
1650545980958.514,220.70704225352117,1317.9487179487178
1650545980959.79,220.70704225352117,1318.6813186813185
1650545980972.871,220.95600676818952,1317.216117216117
1650545980973.055,220.70704225352117,1317.216117216117
1650545980983.482,220.70704225352117,1317.216117216117
1650545980983.721,220.95600676818952,1314.2857142857142
1650545981013.577,220.70704225352117,1312.8205128205127
1650545981014.672,220.95600676818952,1313.5531135531135
1650545981014.81,220.70704225352117,1315.7509157509157
1650545981027.3918,220.95600676818952,1317.216117216117
1650545981028.493,220.95600676818952,1317.9487179487178
1650545981033.427,220.95600676818952,1319.4139194139193
1650545981033.698,220.4586381541925,1323.076923076923
1650545981059.777,220.95600676818952,1324.5421245421244
1650545981061.1218,220.95600676818952,1326.007326007326
1650545981086.091,220.95600676818952,1329.6703296703297
1650545981086.56,220.70704225352117,1330.4029304029302
1650545981087.944,220.70704225352117,1329.6703296703297
1650545981092.273,220.95600676818952,1326.007326007326
1650545981093.341,220.95600676818952,1323.8095238095236
1650545981093.44,220.70704225352117,1324.5421245421244
1650545981118.671,220.95600676818952,1323.8095238095236
1650545981119.763,220.70704225352117,1323.076923076923
1650545981143.45,220.70704225352117,1322.3443223443223
1650545981143.6628,220.95600676818952,1321.6117216117216
1650545981144.704,220.95600676818952,1320.14652014652
1650545981146.023,220.70704225352117,1317.216117216117
1650545981159.842,220.70704225352117,1316.4835164835165
1650545981189.597,220.95600676818952,1320.14652014652
1650545981189.841,220.95600676818952,1328.2051282051282
1650545981189.911,220.95600676818952,1342.8571428571427
1650545981209.795,220.95600676818952,1364.8351648351647
1650545981209.93,220.70704225352117,1394.8717948717947
1650545981210.9758,220.95600676818952,1431.5018315018315
1650545981212.1301,220.95600676818952,1474.7252747252746
1650545981240.963,220.95600676818952,1520.8791208791208
1650545981241.226,220.70704225352117,1568.4981684981683
1650545981242.5261,220.95600676818952,1612.4542124542124
1650545981271.062,220.95600676818952,1651.2820512820513
1650545981274.938,220.70704225352117,1683.5164835164835
1650545981275.2122,220.95600676818952,1707.6923076923076
1650545981275.461,220.95600676818952,1723.8095238095236
1650545981275.6729,220.95600676818952,1729.6703296703295
1650545981299.602,220.95600676818952,1728.937728937729
1650545981299.7761,220.70704225352117,1723.0769230769229
1650545981301.001,220.70704225352117,1709.8901098901097
1650545981328.832,220.95600676818952,1691.5750915750914
1650545981329.9219,220.95600676818952,1667.3992673992673
1650545981330.06,220.70704225352117,1639.5604395604394
1650545981331.0981,220.95600676818952,1609.5238095238094
1650545981337.173,220.95600676818952,1578.021978021978
1650545981362.51,220.70704225352117,1548.7179487179485
1650545981363.3909,220.95600676818952,1520.8791208791208
1650545981363.675,220.95600676818952,1495.970695970696
1650545981388.5159,220.95600676818952,1473.9926739926739
1650545981389.58,220.70704225352117,1454.212454212454
1650545981389.679,220.70704225352117,1438.8278388278388
1650545981397.2212,220.95600676818952,1424.1758241758241
1650545981398.416,220.95600676818952,1413.9194139194137
1650545981424.638,220.95600676818952,1405.8608058608058
1650545981424.878,220.70704225352117,1402.197802197802
1650545981426.04,220.95600676818952,1400.0
1650545981444.7761,220.95600676818952,1397.069597069597
1650545981445.876,220.95600676818952,1397.069597069597
1650545981446.156,220.95600676818952,1397.069597069597
1650545981447.147,220.95600676818952,1397.8021978021977
1650545981461.008,220.4586381541925,1400.0
1650545981485.93,220.95600676818952,1402.9304029304028
1650545981486.2112,220.70704225352117,1410.2564102564102
1650545981487.198,220.95600676818952,1417.5824175824175
1650545981510.304,220.95600676818952,1424.1758241758241
1650545981510.757,220.95600676818952,1431.5018315018315
1650545981510.863,220.70704225352117,1439.5604395604394
1650545981512.271,220.95600676818952,1445.4212454212454
1650545981540.026,220.95600676818952,1448.3516483516482
1650545981541.2449,220.95600676818952,1450.5494505494505
1650545981541.385,220.95600676818952,1454.212454212454
1650545981567.208,220.95600676818952,1457.8754578754579
1650545981568.419,220.70704225352117,1460.07326007326
1650545981574.6191,220.95600676818952,1460.07326007326
1650545981574.833,220.70704225352117,1460.8058608058607
1650545981576.028,220.95600676818952,1460.8058608058607
1650545981600.996,220.95600676818952,1457.142857142857
1650545981604.1738,220.95600676818952,1452.014652014652
1650545981604.34,220.95600676818952,1447.6190476190475
1650545981628.4539,220.95600676818952,1440.2930402930401
1650545981629.7048,220.70704225352117,1432.9670329670328
1650545981630.78,220.95600676818952,1424.9084249084249
1650545981630.962,220.95600676818952,1418.3150183150183
1650545981664.762,220.95600676818952,1410.989010989011
1650545981665.996,220.95600676818952,1402.197802197802
1650545981688.5122,220.95600676818952,1393.4065934065934
1650545981689.596,220.95600676818952,1385.3479853479853
1650545981689.825,220.95600676818952,1376.5567765567764
1650545981690.978,220.70704225352117,1367.032967032967
1650545981692.074,220.95600676818952,1356.7765567765566
1650545981692.291,220.70704225352117,1349.4505494505493
1650545981700.947,220.95600676818952,1344.3223443223442
1650545981727.22,220.95600676818952,1339.9267399267399
1650545981728.379,220.95600676818952,1335.5311355311355
1650545981750.8882,220.95600676818952,1333.3333333333333
1650545981751.1748,220.95600676818952,1327.4725274725274
1650545981752.1318,220.70704225352117,1323.076923076923
1650545981753.382,220.95600676818952,1318.6813186813185
1650545981754.571,220.95600676818952,1317.216117216117
1650545981763.391,220.95600676818952,1312.8205128205127
1650545981792.219,220.95600676818952,1309.1575091575091
1650545981793.4622,220.95600676818952,1308.4249084249084
1650545981812.06,220.70704225352117,1311.3553113553112
1650545981812.303,220.95600676818952,1312.8205128205127
1650545981813.3608,220.95600676818952,1314.2857142857142
1650545981814.49,220.95600676818952,1318.6813186813185
1650545981814.604,220.95600676818952,1321.6117216117216
1650545981839.794,220.95600676818952,1323.8095238095236
1650545981840.916,220.95600676818952,1325.2747252747251
1650545981867.094,221.20553359683797,1326.7399267399267
1650545981867.2842,220.95600676818952,1328.937728937729
1650545981868.351,220.95600676818952,1329.6703296703297
1650545981869.592,220.95600676818952,1326.7399267399267
1650545981883.227,220.95600676818952,1323.076923076923
1650545981883.378,220.95600676818952,1324.5421245421244
1650545981910.991,220.95600676818952,1328.2051282051282
1650545981912.126,220.95600676818952,1334.7985347985348
1650545981933.651,221.20553359683797,1339.9267399267399
1650545981934.792,220.70704225352117,1344.3223443223442
1650545981935.0532,220.95600676818952,1347.985347985348
1650545981935.953,220.95600676818952,1347.985347985348
1650545981941.074,220.95600676818952,1347.985347985348
1650545981941.216,220.95600676818952,1343.5897435897434
1650545981977.0999,220.95600676818952,1337.7289377289376
1650545981978.3472,220.95600676818952,1334.065934065934
1650545981979.5461,220.95600676818952,1330.4029304029302
1650545981980.738,220.95600676818952,1326.7399267399267
1650545981980.886,220.95600676818952,1320.14652014652
1650545981994.728,220.70704225352117,1315.7509157509157
1650545982021.969,220.95600676818952,1315.018315018315
1650545982022.1191,220.95600676818952,1315.018315018315
1650545982023.284,220.95600676818952,1315.7509157509157
1650545982045.6082,220.95600676818952,1319.4139194139193
1650545982045.7449,220.95600676818952,1321.6117216117216
1650545982045.783,220.95600676818952,1323.8095238095236
1650545982045.814,220.95600676818952,1326.7399267399267
1650545982059.676,220.95600676818952,1328.937728937729
1650545982060.814,220.95600676818952,1330.4029304029302
1650545982061.1082,220.95600676818952,1330.4029304029302
1650545982088.862,220.95600676818952,1331.135531135531
1650545982089.0752,220.95600676818952,1331.135531135531
1650545982112.23,220.95600676818952,1328.937728937729
1650545982113.17,220.70704225352117,1327.4725274725274
1650545982113.332,220.95600676818952,1325.2747252747251
1650545982114.581,220.95600676818952,1324.5421245421244
1650545982140.788,220.95600676818952,1323.8095238095236
1650545982141.084,220.95600676818952,1326.007326007326
1650545982142.073,221.20553359683797,1326.7399267399267
1650545982163.5251,220.95600676818952,1326.007326007326
1650545982164.601,220.95600676818952,1326.7399267399267
1650545982165.678,220.95600676818952,1329.6703296703297
1650545982165.8271,220.95600676818952,1335.5311355311355
1650545982179.614,220.70704225352117,1346.5201465201465
1650545982205.729,220.95600676818952,1361.904761904762
1650545982205.896,220.70704225352117,1385.3479853479853
1650545982209.626,220.95600676818952,1416.8498168498168
1650545982232.103,220.95600676818952,1455.6776556776556
1650545982233.315,221.20553359683797,1499.6336996336995
1650545982233.521,220.95600676818952,1549.4505494505493
1650545982234.498,220.95600676818952,1598.5347985347985
1650545982263.3628,220.95600676818952,1647.6190476190475
1650545982264.379,220.95600676818952,1691.5750915750914
1650545982264.505,220.95600676818952,1723.0769230769229
1650545982290.7668,220.95600676818952,1745.7875457875457
1650545982292.034,220.95600676818952,1761.172161172161
1650545982293.164,220.70704225352117,1767.032967032967
1650545982293.3618,220.70704225352117,1765.5677655677655
1650545982324.586,220.70704225352117,1755.311355311355
1650545982325.746,220.95600676818952,1738.4615384615383
1650545982350.6821,220.70704225352117,1716.4835164835163
1650545982350.854,220.95600676818952,1688.6446886446886
1650545982351.9412,220.95600676818952,1655.6776556776556
1650545982353.189,220.95600676818952,1621.245421245421
1650545982354.442,220.95600676818952,1586.080586080586
1650545982354.656,220.95600676818952,1551.6483516483515
1650545982355.847,221.20553359683797,1521.6117216117216
1650545982380.7969,220.70704225352117,1493.7728937728937
1650545982381.9612,220.95600676818952,1469.5970695970695
1650545982382.221,220.95600676818952,1452.014652014652
1650545982408.2761,220.95600676818952,1440.2930402930401
1650545982409.615,221.20553359683797,1432.9670329670328
1650545982411.354,220.70704225352117,1427.8388278388277
1650545982419.442,220.4586381541925,1423.4432234432234
1650545982419.708,220.95600676818952,1419.7802197802198
1650545982444.578,220.95600676818952,1417.5824175824175
1650545982445.59,220.95600676818952,1413.9194139194137
1650545982445.731,220.95600676818952,1412.4542124542124
1650545982470.749,220.95600676818952,1413.9194139194137
1650545982471.991,220.95600676818952,1416.117216117216
1650545982476.9822,220.95600676818952,1416.8498168498168
1650545982478.163,220.95600676818952,1419.7802197802198
1650545982478.311,221.20553359683797,1422.7106227106226
1650545982514.522,220.95600676818952,1428.5714285714284
1650545982515.582,220.95600676818952,1435.164835164835
1650545982515.768,220.95600676818952,1442.4908424908424
1650545982525.843,220.95600676818952,1449.084249084249
1650545982526.9238,220.70704225352117,1454.9450549450548
1650545982533.304,220.95600676818952,1459.3406593406592
1650545982563.134,220.70704225352117,1463.7362637362637
1650545982563.349,220.95600676818952,1467.3992673992673
1650545982564.399,220.95600676818952,1469.5970695970695
1650545982580.731,220.70704225352117,1473.260073260073
1650545982581.031,220.95600676818952,1476.1904761904761
1650545982581.9531,220.70704225352117,1477.6556776556777
1650545982583.215,220.70704225352117,1477.6556776556777
1650545982597.5671,220.95600676818952,1474.7252747252746
1650545982621.9111,220.70704225352117,1470.3296703296703
1650545982622.154,220.70704225352117,1461.5384615384614
1650545982623.2122,220.95600676818952,1451.2820512820513
1650545982651.8518,220.95600676818952,1442.4908424908424
1650545982652.015,220.95600676818952,1430.7692307692307
1650545982653.1301,220.70704225352117,1418.3150183150183
1650545982654.382,220.95600676818952,1403.6630036630036
1650545982655.499,220.95600676818952,1390.4761904761904
1650545982655.595,220.95600676818952,1380.2197802197802
1650545982681.9739,220.95600676818952,1368.4981684981683
1650545982683.1401,220.95600676818952,1356.0439560439559
1650545982710.697,220.70704225352117,1343.5897435897434
1650545982710.916,220.95600676818952,1336.263736263736
1650545982711.938,220.95600676818952,1331.135531135531
1650545982714.52,220.95600676818952,1328.937728937729
1650545982723.062,220.95600676818952,1328.937728937729
1650545982723.211,220.70704225352117,1328.937728937729
1650545982749.542,220.95600676818952,1329.6703296703297
1650545982750.675,220.70704225352117,1329.6703296703297
1650545982770.639,220.95600676818952,1328.2051282051282
1650545982770.8782,220.95600676818952,1326.7399267399267
1650545982771.946,220.95600676818952,1324.5421245421244
1650545982773.184,220.95600676818952,1324.5421245421244
1650545982801.825,220.95600676818952,1324.5421245421244
1650545982802.022,220.95600676818952,1326.7399267399267
1650545982805.584,220.95600676818952,1328.937728937729
1650545982825.809,220.95600676818952,1330.4029304029302
1650545982826.791,220.95600676818952,1331.8681318681317
1650545982826.942,220.95600676818952,1333.3333333333333
1650545982828.0898,220.95600676818952,1334.065934065934
1650545982837.015,220.95600676818952,1333.3333333333333
1650545982865.6052,220.70704225352117,1334.065934065934
1650545982865.783,220.95600676818952,1331.8681318681317
1650545982866.863,220.95600676818952,1328.937728937729
1650545982886.95,220.95600676818952,1325.2747252747251
1650545982888.0461,220.95600676818952,1321.6117216117216
1650545982888.211,220.70704225352117,1322.3443223443223
1650545982889.3892,220.95600676818952,1321.6117216117216
1650545982903.134,220.95600676818952,1321.6117216117216
1650545982927.979,220.95600676818952,1322.3443223443223
1650545982928.081,220.70704225352117,1324.5421245421244
1650545982929.342,220.95600676818952,1326.7399267399267
1650545982950.675,220.95600676818952,1328.2051282051282
1650545982951.73,220.95600676818952,1329.6703296703297
1650545982951.9092,220.70704225352117,1331.135531135531
1650545982953.0999,220.95600676818952,1333.3333333333333
1650545982962.055,220.95600676818952,1335.5311355311355
1650545982991.8662,220.95600676818952,1336.9963369963368
1650545982992.12,220.70704225352117,1337.7289377289376
1650545982993.171,220.95600676818952,1336.9963369963368
1650545983006.906,220.95600676818952,1336.9963369963368
1650545983012.958,220.70704225352117,1337.7289377289376
1650545983013.104,220.95600676818952,1336.9963369963368
1650545983021.983,220.70704225352117,1336.263736263736
1650545983054.317,220.95600676818952,1335.5311355311355
1650545983055.454,220.95600676818952,1334.065934065934
1650545983055.5789,220.95600676818952,1331.8681318681317
1650545983061.917,220.95600676818952,1328.2051282051282
1650545983063.084,220.95600676818952,1325.2747252747251
1650545983064.2031,220.95600676818952,1321.6117216117216
1650545983064.341,220.70704225352117,1318.6813186813185
1650545983078.1418,220.95600676818952,1317.216117216117
1650545983111.8318,220.95600676818952,1317.9487179487178
1650545983113.007,220.95600676818952,1320.8791208791208
1650545983122.154,220.95600676818952,1321.6117216117216
1650545983122.5222,220.95600676818952,1321.6117216117216
1650545983123.041,220.95600676818952,1321.6117216117216
1650545983124.1902,220.70704225352117,1323.076923076923
1650545983124.34,220.95600676818952,1323.8095238095236
1650545983138.1519,221.20553359683797,1326.007326007326
1650545983163.1838,220.95600676818952,1331.8681318681317
1650545983164.19,220.95600676818952,1341.3919413919414
1650545983164.341,220.70704225352117,1358.2417582417581
1650545983189.328,220.95600676818952,1385.3479853479853
1650545983190.474,220.70704225352117,1424.1758241758241
1650545983191.678,220.95600676818952,1471.7948717948716
1650545983191.8098,220.95600676818952,1525.2747252747251
1650545983216.8428,220.95600676818952,1582.4175824175823
1650545983218.048,220.95600676818952,1637.3626373626373
1650545983244.3708,220.95600676818952,1686.4468864468863
1650545983245.4,220.95600676818952,1726.7399267399267
1650545983245.624,220.95600676818952,1751.6483516483515
1650545983256.8892,220.95600676818952,1767.032967032967
1650545983257.9,220.95600676818952,1769.230769230769
1650545983258.068,220.70704225352117,1762.6373626373625
1650545983259.307,220.95600676818952,1748.7179487179485
1650545983285.691,220.70704225352117,1728.2051282051282
1650545983286.7588,220.95600676818952,1699.6336996336995
1650545983309.174,220.95600676818952,1668.8644688644688
1650545983309.316,220.95600676818952,1634.4322344322343
1650545983310.486,220.95600676818952,1596.3369963369962
1650545983311.678,221.20553359683797,1559.7069597069597
1650545983311.868,220.70704225352117,1525.2747252747251
1650545983339.3928,220.95600676818952,1494.5054945054944
1650545983366.6921,221.20553359683797,1465.9340659340658
1650545983366.8352,220.95600676818952,1438.095238095238
1650545983367.779,220.95600676818952,1415.3846153846152
1650545983367.823,220.95600676818952,1397.8021978021977
1650545983373.084,220.95600676818952,1384.6153846153845
1650545983374.147,220.95600676818952,1375.091575091575
1650545983374.314,220.95600676818952,1367.7655677655678
1650545983405.532,220.95600676818952,1363.3699633699632
1650545983406.729,220.95600676818952,1364.102564102564
1650545983425.631,220.95600676818952,1367.032967032967
1650545983426.728,220.95600676818952,1372.161172161172
1650545983426.837,220.95600676818952,1378.021978021978
1650545983427.988,220.95600676818952,1386.080586080586
1650545983441.706,220.95600676818952,1392.6739926739926
1650545983441.952,220.70704225352117,1401.4652014652013
1650545983470.468,220.70704225352117,1410.989010989011
1650545983471.666,220.95600676818952,1420.5128205128203
1650545983490.512,221.20553359683797,1432.9670329670328
1650545983491.666,220.70704225352117,1443.956043956044
1650545983491.8972,220.95600676818952,1455.6776556776556
1650545983494.291,220.95600676818952,1465.201465201465
1650545983503.023,221.20553359683797,1474.7252747252746
1650545983503.3591,220.95600676818952,1480.5860805860805
1650545983535.481,220.95600676818952,1481.3186813186812
1650545983536.696,220.95600676818952,1480.5860805860805
1650545983546.724,220.70704225352117,1479.120879120879
1650545983547.812,220.70704225352117,1476.923076923077
1650545983547.937,220.95600676818952,1473.260073260073
1650545983549.155,220.95600676818952,1468.131868131868
1650545983562.8892,220.70704225352117,1462.2710622710622
1650545983563.124,220.70704225352117,1452.7472527472526
1650545983587.958,220.70704225352117,1442.4908424908424
1650545983589.138,220.95600676818952,1430.7692307692307
1650545983606.738,220.95600676818952,1419.7802197802198
1650545983607.884,220.95600676818952,1411.7216117216117
1650545983608.0781,220.95600676818952,1401.4652014652013
1650545983616.669,220.95600676818952,1392.6739926739926
1650545983647.889,220.95600676818952,1381.6849816849815
1650545983648.108,220.70704225352117,1372.8937728937728
1650545983649.082,220.70704225352117,1365.5677655677655
1650545983666.765,220.95600676818952,1361.1721611721612
1650545983667.877,220.95600676818952,1358.974358974359
1650545983668.0752,220.70704225352117,1357.5091575091574
1650545983676.6812,220.70704225352117,1355.3113553113553
1650545983704.136,220.4586381541925,1351.6483516483515
1650545983704.386,220.95600676818952,1345.7875457875457
1650545983705.3872,220.70704225352117,1341.3919413919414
1650545983726.779,220.70704225352117,1336.263736263736
1650545983728.1648,220.70704225352117,1331.8681318681317
1650545983729.1292,220.70704225352117,1328.2051282051282
1650545983730.283,220.70704225352117,1326.007326007326
1650545983730.489,220.70704225352117,1323.8095238095236
1650545983760.3992,220.4586381541925,1323.076923076923
1650545983761.53,220.4586381541925,1322.3443223443223
1650545983761.711,220.4586381541925,1323.8095238095236
1650545983787.9429,220.4586381541925,1326.007326007326
1650545983789.2239,220.70704225352117,1327.4725274725274
1650545983796.683,220.4586381541925,1328.937728937729
1650545983797.731,220.4586381541925,1330.4029304029302
1650545983797.869,220.4586381541925,1331.8681318681317
1650545983833.284,220.2107925801012,1332.6007326007325
1650545983833.986,220.4586381541925,1331.135531135531
1650545983834.1501,220.4586381541925,1329.6703296703297
1650545983844.169,220.4586381541925,1329.6703296703297
1650545983845.386,220.4586381541925,1331.135531135531
1650545983846.6091,220.4586381541925,1334.065934065934
1650545983860.354,220.4586381541925,1337.7289377289376
1650545983860.575,220.2107925801012,1339.9267399267399
1650545983861.606,220.4586381541925,1341.3919413919414
1650545983889.0059,220.4586381541925,1342.1245421245421
1650545983889.216,220.2107925801012,1342.1245421245421
1650545983890.346,220.2107925801012,1340.6593406593406
1650545983910.392,220.2107925801012,1337.7289377289376
1650545983912.833,220.2107925801012,1334.7985347985348
1650545983921.696,219.96350364963507,1333.3333333333333
1650545983921.935,219.96350364963507,1331.8681318681317
1650545983946.5781,220.2107925801012,1330.4029304029302
1650545983947.719,220.2107925801012,1326.007326007326
1650545983947.894,219.96350364963507,1320.8791208791208
1650545983965.3398,219.71676948962426,1315.018315018315
1650545983966.541,220.2107925801012,1309.89010989011
1650545983967.8928,219.96350364963507,1308.4249084249084
1650545983981.568,219.71676948962426,1309.1575091575091
1650545983981.833,219.96350364963507,1311.3553113553112
1650545984007.8289,219.96350364963507,1311.3553113553112
1650545984008.857,219.96350364963507,1312.087912087912
1650545984008.918,219.71676948962426,1312.8205128205127
1650545984029.572,219.71676948962426,1313.5531135531135
1650545984030.241,219.71676948962426,1315.018315018315
1650545984031.586,219.71676948962426,1317.216117216117
1650545984056.487,219.71676948962426,1317.9487179487178
1650545984056.731,219.71676948962426,1317.216117216117
1650545984058.216,219.71676948962426,1315.7509157509157
1650545984082.686,219.71676948962426,1313.5531135531135
1650545984082.815,219.47058823529414,1312.087912087912
1650545984084.001,219.47058823529414,1312.087912087912
1650545984097.789,219.47058823529414,1312.087912087912
1650545984099.031,219.47058823529414,1311.3553113553112
1650545984128.976,219.47058823529414,1313.5531135531135
1650545984129.226,219.2249580302183,1315.018315018315
1650545984130.231,219.47058823529414,1320.8791208791208
1650545984151.36,219.2249580302183,1336.9963369963368
1650545984151.49,219.2249580302183,1360.4395604395604
1650545984152.686,218.9798770262717,1395.6043956043954
1650545984153.9458,219.2249580302183,1437.3626373626373
1650545984155.257,219.2249580302183,1485.7142857142856
1650545984186.456,218.9798770262717,1539.9267399267399
1650545984186.623,219.2249580302183,1598.5347985347985
1650545984187.703,218.9798770262717,1658.6080586080584
1650545984202.7048,218.9798770262717,1715.018315018315
1650545984202.91,218.73534338358462,1764.8351648351647
1650545984203.9448,218.73534338358462,1802.9304029304028
1650545984209.033,218.9798770262717,1830.7692307692307
1650545984222.776,218.73534338358462,1846.153846153846
1650545984250.097,218.73534338358462,1851.2820512820513
1650545984250.275,218.73534338358462,1843.956043956044
1650545984251.506,218.49135527049634,1828.5714285714284
1650545984266.574,218.73534338358462,1804.3956043956043
1650545984266.742,218.49135527049634,1771.4285714285713
1650545984267.8062,218.2479108635097,1733.3333333333333
1650545984274.903,218.49135527049634,1693.7728937728937
1650545984298.821,218.49135527049634,1654.9450549450548
1650545984299.013,218.49135527049634,1616.117216117216
1650545984300.211,218.2479108635097,1577.2893772893772
1650545984326.4849,218.2479108635097,1542.8571428571427
1650545984327.614,218.2479108635097,1514.2857142857142
1650545984327.7148,218.2479108635097,1490.10989010989
1650545984336.457,218.00500834724537,1474.7252747252746
1650545984337.6492,218.2479108635097,1464.4688644688645
1650545984362.643,217.76264591439684,1460.07326007326
1650545984363.7358,218.00500834724537,1460.8058608058607
1650545984363.827,218.00500834724537,1463.003663003663
1650545984383.89,218.00500834724537,1466.6666666666665
1650545984385.067,217.76264591439684,1468.8644688644688
1650545984385.216,217.76264591439684,1471.062271062271
1650545984386.511,217.76264591439684,1470.3296703296703
1650545984400.2048,217.76264591439684,1467.3992673992673
1650545984436.485,217.76264591439684,1462.2710622710622
1650545984437.608,217.5208217656857,1457.142857142857
1650545984437.793,217.27953410981695,1454.9450549450548
1650545984447.753,217.5208217656857,1456.4102564102564
1650545984448.7642,217.5208217656857,1460.8058608058607
1650545984448.93,217.27953410981695,1468.8644688644688
1650545984457.741,217.27953410981695,1477.6556776556777
1650545984483.878,217.27953410981695,1487.179487179487
1650545984485.014,217.27953410981695,1494.5054945054944
1650545984485.1401,217.03878116343486,1501.098901098901
1650545984510.417,217.03878116343486,1505.4945054945053
1650545984511.427,217.27953410981695,1506.9597069597069
1650545984512.469,216.7985611510791,1509.1575091575091
1650545984512.605,217.03878116343486,1508.4249084249084
1650545984513.958,217.03878116343486,1506.227106227106
1650545984540.325,217.03878116343486,1502.5641025641025
1650545984541.24,217.03878116343486,1498.168498168498
1650545984541.405,216.7985611510791,1495.2380952380952
1650545984566.3809,216.7985611510791,1491.5750915750914
1650545984567.573,216.7985611510791,1486.4468864468863
1650545984568.675,216.7985611510791,1481.3186813186812
1650545984568.757,216.55887230514094,1473.9926739926739
1650545984575.177,216.55887230514094,1466.6666666666665
1650545984601.382,216.7985611510791,1456.4102564102564
1650545984602.4321,216.55887230514094,1443.956043956044
1650545984602.521,216.31971286581995,1432.9670329670328
1650545984630.1538,216.55887230514094,1423.4432234432234
1650545984631.281,216.08108108108107,1412.4542124542124
1650545984633.7112,216.55887230514094,1399.2673992673992
1650545984633.842,216.08108108108107,1386.080586080586
1650545984635.0442,216.08108108108107,1372.161172161172
1650545984661.395,216.08108108108107,1361.1721611721612
1650545984662.559,216.08108108108107,1353.113553113553
1650545984690.007,216.08108108108107,1346.5201465201465
1650545984690.182,215.84297520661156,1341.3919413919414
1650545984690.25,216.08108108108107,1339.194139194139
1650545984697.5159,215.84297520661156,1339.9267399267399
1650545984697.702,215.84297520661156,1342.8571428571427
1650545984698.7969,215.84297520661156,1346.5201465201465
1650545984727.66,215.84297520661156,1349.4505494505493
1650545984728.647,215.84297520661156,1350.18315018315
1650545984728.7349,215.60539350577872,1351.6483516483515
1650545984747.528,215.60539350577872,1351.6483516483515
1650545984748.7869,215.60539350577872,1350.18315018315
1650545984749.9622,215.60539350577872,1349.4505494505493
1650545984750.1619,215.36833424958766,1346.5201465201465
1650545984784.0322,215.36833424958766,1342.8571428571427
1650545984785.054,215.60539350577872,1337.7289377289376
1650545984803.913,215.36833424958766,1336.263736263736
1650545984804.89,215.13179571663917,1337.7289377289376
1650545984805.007,215.13179571663917,1341.3919413919414
1650545984806.381,215.13179571663917,1342.1245421245421
1650545984820.0159,215.13179571663917,1342.8571428571427
1650545984820.252,215.13179571663917,1342.1245421245421
1650545984852.507,215.13179571663917,1341.3919413919414
1650545984853.7449,214.8957761930883,1339.9267399267399
1650545984866.2441,215.13179571663917,1336.9963369963368
1650545984866.4602,214.6602739726027,1335.5311355311355
1650545984866.496,214.8957761930883,1331.135531135531
1650545984867.477,214.8957761930883,1327.4725274725274
1650545984876.2021,214.8957761930883,1326.007326007326
1650545984876.48,214.6602739726027,1326.7399267399267
1650545984901.321,214.6602739726027,1326.007326007326
1650545984902.558,214.8957761930883,1324.5421245421244
1650545984927.659,214.6602739726027,1322.3443223443223
1650545984929.149,214.42528735632183,1321.6117216117216
1650545984929.394,214.6602739726027,1320.8791208791208
1650545984929.974,214.42528735632183,1320.8791208791208
1650545984939.028,214.6602739726027,1319.4139194139193
1650545984939.188,214.42528735632183,1319.4139194139193
1650545984965.157,214.42528735632183,1319.4139194139193
1650545984966.2249,214.42528735632183,1318.6813186813185
1650545984988.749,214.19081465281573,1315.018315018315
1650545984989.027,214.19081465281573,1311.3553113553112
1650545984989.9658,214.19081465281573,1309.89010989011
1650545984991.153,214.19081465281573,1310.6227106227104
1650545985021.125,214.19081465281573,1313.5531135531135
1650545985021.342,213.95685417804478,1317.216117216117
1650545985022.425,214.19081465281573,1319.4139194139193
1650545985043.736,214.19081465281573,1319.4139194139193
1650545985044.775,213.95685417804478,1318.6813186813185
1650545985044.8599,213.95685417804478,1319.4139194139193
1650545985047.555,213.95685417804478,1319.4139194139193
1650545985079.952,213.95685417804478,1320.14652014652
1650545985081.0,213.72340425531914,1320.14652014652
1650545985081.113,213.95685417804478,1318.6813186813185
1650545985106.233,213.72340425531914,1315.018315018315
1650545985107.4,213.72340425531914,1311.3553113553112
1650545985108.9211,213.72340425531914,1306.9597069597069
1650545985109.79,213.49046321525884,1303.2967032967033
1650545985109.941,213.72340425531914,1301.098901098901
1650545985118.676,213.49046321525884,1298.9010989010987
1650545985144.81,213.49046321525884,1298.168498168498
1650545985145.002,213.49046321525884,1299.6336996336995
1650545985146.1401,213.49046321525884,1306.9597069597069
1650545985167.363,213.49046321525884,1322.3443223443223
1650545985168.621,213.49046321525884,1348.7179487179487
1650545985169.778,213.25802939575394,1386.080586080586
1650545985170.004,213.25802939575394,1430.7692307692307
1650545985178.873,213.25802939575394,1484.9816849816848
1650545985209.81,213.25802939575394,1544.3223443223442
1650545985210.019,213.02610114192495,1608.7912087912086
1650545985211.142,213.25802939575394,1673.9926739926739
1650545985222.367,213.25802939575394,1736.9963369963368
1650545985223.474,213.25802939575394,1790.4761904761904
1650545985223.67,213.02610114192495,1833.6996336996335
1650545985232.449,213.02610114192495,1865.201465201465
1650545985257.28,213.25802939575394,1879.120879120879
1650545985257.429,213.25802939575394,1881.3186813186812
1650545985258.555,212.79467680608363,1872.5274725274724
1650545985283.597,212.79467680608363,1849.8168498168498
1650545985284.7769,212.79467680608363,1819.047619047619
1650545985295.072,213.02610114192495,1779.4871794871794
1650545985296.0151,212.79467680608363,1734.7985347985348
1650545985296.21,212.79467680608363,1687.9120879120878
1650545985324.857,212.79467680608363,1643.2234432234432
1650545985325.9858,212.79467680608363,1601.4652014652013
1650545985326.115,212.79467680608363,1564.8351648351647
1650545985347.29,212.79467680608363,1534.065934065934
1650545985348.478,212.79467680608363,1510.6227106227104
1650545985349.606,212.79467680608363,1493.040293040293
1650545985349.663,212.56375474769396,1481.3186813186812
1650545985358.752,212.56375474769396,1473.260073260073
1650545985372.283,212.56375474769396,1468.8644688644688
1650545985373.4282,212.56375474769396,1465.9340659340658
1650545985373.6091,212.56375474769396,1465.9340659340658
1650545985398.711,212.56375474769396,1464.4688644688645
1650545985399.898,212.56375474769396,1463.7362637362637
1650545985411.0862,212.56375474769396,1463.7362637362637
1650545985412.175,212.56375474769396,1463.003663003663
1650545985412.3398,212.33333333333331,1463.7362637362637
1650545985444.887,212.33333333333331,1465.9340659340658
1650545985446.037,212.33333333333331,1468.131868131868
1650545985446.2112,212.33333333333331,1471.7948717948716
1650545985469.038,212.10341093665403,1476.1904761904761
1650545985469.814,212.10341093665403,1482.051282051282
1650545985471.057,212.33333333333331,1487.9120879120878
1650545985479.809,212.33333333333331,1493.7728937728937
1650545985480.016,212.33333333333331,1497.4358974358972
1650545985508.523,212.33333333333331,1501.098901098901
1650545985509.6519,212.33333333333331,1505.4945054945053
1650545985509.806,212.10341093665403,1509.1575091575091
1650545985524.824,212.10341093665403,1509.89010989011
1650545985526.095,212.10341093665403,1507.6923076923076
1650545985534.7642,212.10341093665403,1503.2967032967033
1650545985541.011,211.87398593834504,1499.6336996336995
1650545985541.3042,212.10341093665403,1495.970695970696
1650545985566.115,212.10341093665403,1489.3772893772893
1650545985567.12,212.10341093665403,1478.3882783882782
1650545985567.259,211.87398593834504,1468.131868131868
1650545985592.3591,212.10341093665403,1457.8754578754579
1650545985593.43,212.10341093665403,1447.6190476190475
1650545985594.6409,212.10341093665403,1441.0256410256409
1650545985620.871,211.87398593834504,1436.6300366300366
1650545985620.98,211.87398593834504,1430.03663003663
1650545985622.17,212.10341093665403,1419.047619047619
1650545985647.1592,211.87398593834504,1405.128205128205
