Timestamp,GSR,PPG
1650462802062.8801,225.81481481481478,0.0
1650462802076.763,225.81481481481478,0.0
1650462802082.9722,225.81481481481478,0.0
1650462802109.086,225.81481481481478,0.0
1650462802109.301,225.81481481481478,0.0
1650462802110.388,225.81481481481478,0.0
1650462802122.8682,225.81481481481478,0.0
1650462802123.961,225.81481481481478,0.0
1650462802137.799,263.453261600538,0.0
1650462802137.9832,263.453261600538,0.0
1650462802166.628,263.453261600538,0.0
1650462802167.841,263.453261600538,0.0
1650462802187.9622,263.453261600538,0.0
1650462802188.151,263.453261600538,0.0
1650462802189.22,263.453261600538,0.0
1650462802190.455,263.453261600538,0.0
1650462802220.437,263.453261600538,0.0
1650462802220.613,263.453261600538,0.0
1650462802221.724,263.453261600538,0.0
1650462802242.859,264.0742890307603,0.0
1650462802243.0588,264.17650474162957,0.0
1650462802244.159,263.9721523883195,0.0
1650462802245.361,263.9721523883195,0.0
1650462802251.507,264.0742890307603,0.0
1650462802286.687,264.17650474162957,0.0
1650462802286.9612,263.9721523883195,0.0
1650462802287.894,264.17650474162957,0.0
1650462802302.8801,264.0742890307603,0.0
1650462802303.097,264.17650474162957,0.0
1650462802304.211,264.0742890307603,0.0
1650462802305.444,264.0742890307603,0.0
1650462802319.02,264.0742890307603,0.0
1650462802319.199,263.9721523883195,0.0
1650462802320.343,264.0742890307603,0.0
1650462802349.235,264.0742890307603,0.0
1650462802350.2659,264.17650474162957,0.0
1650462802350.379,264.2787996127783,0.0
1650462802365.688,264.0742890307603,0.0
1650462802366.637,264.17650474162957,0.0
1650462802380.32,264.2787996127783,0.0
1650462802380.503,264.0742890307603,0.0
1650462802419.129,264.0742890307603,0.0
1650462802420.335,264.3811737361999,0.0
1650462802422.721,264.2787996127783,0.0
1650462802422.861,264.3811737361999,0.0
1650462802424.084,264.2787996127783,0.0
1650462802432.857,264.2787996127783,0.0
1650462802433.969,264.17650474162957,0.0
1650462802467.764,264.3811737361999,0.0
1650462802467.9539,264.2787996127783,0.0
1650462802469.1091,264.2787996127783,0.0
1650462802481.596,264.3811737361999,0.0
1650462802482.697,264.48362720403026,0.0
1650462802482.778,264.2787996127783,0.0
1650462802519.104,264.2787996127783,0.0
1650462802520.277,264.48362720403026,0.0
1650462802520.504,264.48362720403026,0.0
1650462802545.4631,264.3811737361999,0.0
1650462802546.63,264.3811737361999,0.0
1650462802547.786,264.5861601085482,0.0
1650462802547.923,264.5861601085482,0.0
1650462802549.098,264.48362720403026,0.0
1650462802550.344,264.5861601085482,0.0
1650462802580.446,264.3811737361999,0.0
1650462802581.734,264.5861601085482,0.0
1650462802581.933,264.5861601085482,0.0
1650462802604.125,264.5861601085482,0.0
1650462802605.334,264.5861601085482,0.0
1650462802606.4602,264.5861601085482,0.0
1650462802606.613,264.5861601085482,0.0
1650462802620.535,264.5861601085482,0.0
1650462802621.5798,264.6887725421757,0.0
1650462802652.724,264.6887725421757,0.0
1650462802652.8289,264.5861601085482,0.0
1650462802654.0972,264.5861601085482,0.0
1650462802661.604,264.6887725421757,0.0
1650462802672.864,264.6887725421757,0.0
1650462802673.054,264.5861601085482,0.0
1650462802679.127,264.6887725421757,0.0
1650462802705.383,264.7914645974782,0.0
1650462802706.63,264.5861601085482,0.0
1650462802725.576,264.5861601085482,0.0
1650462802726.6072,264.5861601085482,0.0
1650462802727.814,264.7914645974782,0.0
1650462802727.952,264.7914645974782,0.0
1650462802729.126,264.6887725421757,0.0
1650462802742.958,264.6887725421757,0.0
1650462802771.6511,264.7914645974782,0.0
1650462802772.787,264.99708794408855,0.0
1650462802772.959,264.6887725421757,0.0
1650462802781.738,264.7914645974782,0.0
1650462802782.851,264.7914645974782,0.0
1650462802799.02,264.7914645974782,0.0
1650462802799.204,264.7914645974782,0.0
1650462802833.1,264.7914645974782,0.0
1650462802834.035,264.89423636716475,0.0
1650462802834.633,264.89423636716475,0.0
1650462802842.906,264.7914645974782,0.0
1650462802844.099,264.7914645974782,0.0
1650462802845.236,264.99708794408855,0.0
1650462802845.284,264.89423636716475,0.0
1650462802859.0742,264.89423636716475,0.0
1650462802891.656,264.89423636716475,0.0
1650462802892.78,264.89423636716475,0.0
1650462802905.478,265.1000194212468,0.0
1650462802905.68,264.7914645974782,0.0
1650462802906.7,264.99708794408855,0.0
1650462802907.864,264.99708794408855,0.0
1650462802921.52,265.1000194212468,0.0
1650462802921.709,264.89423636716475,0.0
1650462802922.841,264.99708794408855,0.0
1650462802960.5469,264.99708794408855,0.0
1650462802962.776,265.1000194212468,0.0
1650462802962.986,264.89423636716475,0.0
1650462802964.2588,265.1000194212468,0.0
1650462802970.412,265.1000194212468,0.0
1650462802979.038,264.89423636716475,0.0
1650462802979.216,264.99708794408855,0.0
1650462803005.489,265.1000194212468,0.0
1650462803006.723,265.2030308917816,0.0
1650462803030.301,265.1000194212468,0.0
1650462803030.501,264.99708794408855,0.0
1650462803031.634,265.1000194212468,0.0
1650462803034.096,265.1000194212468,0.0
1650462803067.976,265.2030308917816,0.0
1650462803068.2659,264.99708794408855,0.0
1650462803069.245,265.2030308917816,0.0
1650462803084.1091,265.2030308917816,0.0
1650462803086.436,265.2030308917816,0.0
1650462803086.597,265.1000194212468,0.0
1650462803087.823,265.2030308917816,0.0
1650462803097.883,265.2030308917816,0.0
1650462803122.801,264.99708794408855,0.0
1650462803123.066,265.1000194212468,0.0
1650462803124.248,265.1000194212468,0.0
1650462803143.955,265.2030308917816,0.0
1650462803145.262,265.2030308917816,0.0
1650462803145.3298,265.1000194212468,0.0
1650462803146.544,265.2030308917816,0.0
1650462803160.489,265.2030308917816,0.0
1650462803160.849,265.3061224489796,0.0
1650462803196.769,265.1000194212468,0.0
1650462803197.898,265.2030308917816,0.0
1650462803199.02,265.2030308917816,0.0
1650462803199.2468,265.2030308917816,0.0
1650462803200.314,265.1000194212468,0.0
1650462803209.1292,265.2030308917816,0.0
1650462803222.778,265.3061224489796,0.0
1650462803222.923,265.2030308917816,0.0
1650462803259.5698,265.1000194212468,0.0
1650462803260.49,265.2030308917816,0.0
1650462803261.6711,265.2030308917816,0.0
1650462803262.752,265.3061224489796,0.0
1650462803262.937,265.1000194212468,0.0
1650462803271.665,265.2030308917816,0.0
1650462803311.6519,265.2030308917816,0.0
1650462803311.9978,265.2030308917816,0.0
1650462803313.271,264.99708794408855,0.0
1650462803322.8691,265.1000194212468,0.0
1650462803323.915,265.1000194212468,0.0
1650462803325.4048,265.2030308917816,0.0
1650462803325.5889,264.99708794408855,0.0
1650462803334.0781,265.1000194212468,0.0
1650462803368.297,264.99708794408855,0.0
1650462803368.553,264.99708794408855,0.0
1650462803369.162,264.89423636716475,0.0
1650462803384.167,264.99708794408855,0.0
1650462803385.284,264.89423636716475,0.0
1650462803386.4592,264.99708794408855,0.0
1650462803386.587,264.7914645974782,0.0
1650462803412.882,264.89423636716475,0.0
1650462803413.9968,264.7914645974782,0.0
1650462803414.188,264.6887725421757,0.0
1650462803441.634,264.5861601085482,0.0
1650462803442.908,264.6887725421757,0.0
1650462803446.477,264.6887725421757,0.0
1650462803446.589,264.6887725421757,0.0
1650462803451.756,264.48362720403026,0.0
1650462803492.916,264.48362720403026,0.0
1650462803493.997,264.5861601085482,0.0
1650462803494.128,264.5861601085482,0.0
1650462803501.657,264.3811737361999,0.0
1650462803502.8901,264.48362720403026,0.0
1650462803503.987,264.3811737361999,0.0
1650462803517.7441,264.2787996127783,0.0
1650462803517.926,264.17650474162957,0.0
1650462803519.096,264.2787996127783,0.0
1650462803544.036,264.2787996127783,0.0
1650462803544.2358,264.17650474162957,0.0
1650462803545.331,264.0742890307603,0.0
1650462803564.1338,264.0742890307603,0.0
1650462803565.278,264.0742890307603,0.0
1650462803574.014,263.9721523883195,0.0
1650462803574.221,263.87009472259814,0.0
1650462803599.125,263.87009472259814,0.0
1650462803600.382,263.87009472259814,0.0
1650462803600.573,263.9721523883195,0.0
1650462803625.546,263.66621595518643,0.0
1650462803626.69,263.768115942029,0.0
1650462803627.858,263.768115942029,0.0
1650462803641.5442,263.768115942029,0.0
1650462803641.7698,263.46265199768385,0.0
1650462803642.824,263.46265199768385,0.0
1650462803676.7012,263.5643946707859,0.0
1650462803676.91,263.5643946707859,0.0
1650462803677.971,263.3609878448775,0.0
1650462803685.493,263.3609878448775,0.0
1650462803686.605,263.25940212150437,0.0
1650462803703.0972,263.25940212150437,0.0
1650462803703.333,263.05646560030834,0.0
1650462803729.116,263.05646560030834,0.0
1650462803730.333,263.05646560030834,0.0
1650462803745.438,263.05646560030834,0.0
1650462803745.6401,262.85384170999424,0.0
1650462803746.667,262.9551146214602,0.0
1650462803747.9119,262.7526467757459,0.0
1650462803796.453,262.85384170999424,0.0
1650462803796.631,262.5504904789383,0.0
1650462803797.822,262.5504904789383,0.0
1650462803798.948,262.65152972868964,0.0
1650462803799.061,262.65152972868964,0.0
1650462803805.4631,262.4495289367429,0.0
1650462803814.542,262.4495289367429,0.0
1650462803815.281,262.3486450124928,0.0
1650462803840.342,262.4495289367429,0.0
1650462803840.5408,262.2478386167147,0.0
1650462803864.117,262.147109660073,0.0
1650462803865.4512,262.147109660073,0.0
1650462803865.651,262.147109660073,0.0
1650462803866.645,261.9458837075418,0.0
1650462803867.924,261.9458837075418,0.0
1650462803877.794,261.9458837075418,0.0
1650462803877.9968,261.644623346751,0.0
1650462803905.404,261.74496644295306,0.0
1650462803906.568,261.74496644295306,0.0
1650462803923.11,261.74496644295306,0.0
1650462803923.327,261.74496644295306,0.0
1650462803924.273,261.44416778394947,0.0
1650462803925.54,261.5443571565434,0.0
1650462803939.094,261.34405514072375,0.0
1650462803964.143,261.44416778394947,0.0
1650462803964.36,261.244019138756,0.0
1650462803965.353,261.34405514072375,0.0
1650462803986.5051,261.244019138756,0.0
1650462803986.695,261.34405514072375,0.0
1650462803987.915,261.14405969007083,0.0
1650462803989.164,261.14405969007083,0.0
1650462804001.465,261.14405969007083,0.0
1650462804037.842,261.14405969007083,0.0
1650462804038.2139,260.94437010131907,0.0
1650462804039.0999,261.04417670682733,0.0
1650462804045.258,261.04417670682733,0.0
1650462804045.443,261.04417670682733,0.0
1650462804046.566,260.84463978597364,0.0
1650462804055.368,260.84463978597364,0.0
1650462804081.661,260.74498567335246,0.0
1650462804082.795,260.84463978597364,0.0
1650462804082.957,260.6454076761505,0.0
1650462804106.812,260.6454076761505,0.0
1650462804107.991,260.6454076761505,0.0
1650462804109.145,260.6454076761505,0.0
1650462804109.468,260.545905707196,0.0
1650462804115.741,260.6454076761505,0.0
1650462804140.6729,260.44647967945053,0.0
1650462804140.872,260.545905707196,0.0
1650462804141.75,260.44647967945053,0.0
1650462804164.112,260.44647967945053,0.0
1650462804165.252,260.34712950600806,0.0
1650462804165.365,260.44647967945053,0.0
1650462804166.596,260.24785510009536,0.0
1650462804180.5078,260.24785510009536,0.0
1650462804205.583,260.24785510009536,0.0
1650462804206.656,260.34712950600806,0.0
1650462804206.866,260.1486563750715,0.0
1650462804225.508,260.1486563750715,0.0
1650462804226.747,260.1486563750715,0.0
1650462804227.966,260.04953324442755,0.0
1650462804228.1921,259.95048562178636,0.0
1650462804241.946,260.04953324442755,0.0
1650462804275.548,259.95048562178636,0.0
1650462804276.9001,259.95048562178636,0.0
1650462804283.1162,259.95048562178636,0.0
1650462804284.321,260.04953324442755,0.0
1650462804285.481,259.95048562178636,0.0
1650462804285.6792,260.04953324442755,0.0
1650462804299.471,259.7526165556613,0.0
1650462804300.6848,259.8515134209024,0.0
1650462804331.711,259.95048562178636,0.0
1650462804332.918,259.8515134209024,0.0
1650462804333.109,259.7526165556613,0.0
1650462804344.543,259.8515134209024,0.0
1650462804345.553,259.8515134209024,0.0
1650462804359.254,259.7526165556613,0.0
1650462804359.4429,259.65379494007993,0.0
1650462804360.6318,259.65379494007993,0.7326007326007326
1650462804389.455,259.65379494007993,0.0
1650462804401.729,259.7526165556613,0.0
1650462804401.9219,259.456377114617,0.0
1650462804403.018,259.65379494007993,0.0
1650462804404.3281,259.5550484883058,0.0
1650462804418.09,259.5550484883058,0.0
1650462804418.287,259.5550484883058,0.0
1650462804451.7678,259.65379494007993,0.0
1650462804453.116,259.5550484883058,0.0
1650462804470.3828,259.5550484883058,0.0
1650462804470.574,259.456377114617,0.0
1650462804471.7332,259.5550484883058,0.0
1650462804472.98,259.35778073342203,0.0
1650462804481.888,259.5550484883058,0.0
1650462804482.077,259.456377114617,0.0
1650462804506.857,259.456377114617,0.0
1650462804507.965,259.5550484883058,0.0
1650462804508.1812,259.456377114617,0.0
1650462804524.1648,259.35778073342203,0.0
1650462804525.418,259.35778073342203,0.0
1650462804534.0012,259.456377114617,0.0
1650462804534.153,259.5550484883058,0.0
1650462804542.9639,259.2592592592593,0.0
1650462804568.135,259.2592592592593,0.0
1650462804569.179,259.456377114617,0.0
1650462804587.085,259.35778073342203,0.0
1650462804587.281,259.2592592592593,0.0
1650462804588.071,259.2592592592593,0.0
1650462804594.196,259.35778073342203,0.0
1650462804638.095,259.35778073342203,0.0
1650462804638.295,259.0624406908332,0.0
1650462804639.162,259.35778073342203,0.0
1650462804640.421,259.2592592592593,0.0
1650462804641.683,259.35778073342203,0.0
1650462804641.9028,259.16081260679704,0.0
1650462804648.157,259.16081260679704,0.0
1650462804656.992,259.0624406908332,0.0
1650462804688.195,259.0624406908332,0.0
1650462804688.436,259.0624406908332,0.0
1650462804689.343,259.2592592592593,0.0
1650462804709.131,259.16081260679704,0.0
1650462804711.567,259.2592592592593,0.0
1650462804711.762,259.0624406908332,0.0
1650462804712.921,259.0624406908332,0.0
1650462804722.881,259.16081260679704,0.0
1650462804723.126,258.8659207282382,0.0
1650462804752.909,258.96414342629487,0.0
1650462804754.137,259.0624406908332,0.0
1650462804766.529,258.96414342629487,0.0
1650462804766.768,259.0624406908332,0.0
1650462804772.961,258.8659207282382,0.0
1650462804781.615,258.96414342629487,0.0
1650462804781.8179,258.96414342629487,0.0
1650462804806.814,258.76777251184836,0.0
1650462804807.0059,258.76777251184836,0.0
1650462804808.113,258.8659207282382,30.036630036630033
1650462804826.738,258.8659207282382,184.6153846153846
1650462804827.946,258.8659207282382,383.1501831501831
1650462804828.113,258.6696986924389,591.9413919413919
1650462804836.736,258.76777251184836,790.4761904761904
1650462804866.769,258.6696986924389,969.2307692307692
1650462804866.927,258.6696986924389,1123.8095238095236
1650462804867.989,258.5716991854518,1252.014652014652
1650462804885.611,258.5716991854518,1353.113553113553
1650462804886.7021,258.6696986924389,1430.7692307692307
1650462804887.934,258.47377390645715,1484.2490842490843
1650462804889.2031,258.47377390645715,1517.9487179487178
1650462804900.4531,258.5716991854518,1536.9963369963368
1650462804927.9028,258.47377390645715,1545.7875457875457
1650462804928.062,258.3759227711528,1547.2527472527472
1650462804945.7048,258.3759227711528,1542.8571428571427
1650462804946.747,258.47377390645715,1534.065934065934
1650462804947.917,258.3759227711528,1526.7399267399267
1650462804951.552,258.3759227711528,1517.9487179487178
1650462804951.8071,258.2781456953643,1507.6923076923076
1650462804960.613,258.2781456953643,1495.970695970696
1650462804989.501,258.2781456953643,1486.4468864468863
1650462804990.3691,258.1804425950445,1478.3882783882782
1650462804990.528,258.1804425950445,1471.7948717948716
1650462805004.3088,258.2781456953643,1462.2710622710622
1650462805005.402,258.1804425950445,1454.212454212454
1650462805011.919,258.1804425950445,1445.4212454212454
1650462805012.1191,258.0828133862734,1436.6300366300366
1650462805041.935,258.0828133862734,1426.3736263736262
1650462805042.922,258.0828133862734,1416.117216117216
1650462805043.1162,258.1804425950445,1403.6630036630036
1650462805067.017,257.98525798525793,1391.2087912087911
1650462805068.0598,257.98525798525793,1376.5567765567764
1650462805069.208,258.0828133862734,1364.8351648351647
1650462805079.304,258.0828133862734,1354.5787545787546
1650462805079.4949,257.88777630833175,1346.5201465201465
1650462805106.942,257.98525798525793,1338.4615384615383
1650462805108.0042,257.88777630833175,1330.4029304029302
1650462805124.084,257.98525798525793,1324.5421245421244
1650462805124.239,257.79036827195466,1319.4139194139193
1650462805125.491,257.79036827195466,1315.7509157509157
1650462805134.2002,257.79036827195466,1312.087912087912
1650462805134.353,257.79036827195466,1310.6227106227104
1650462805135.4011,257.6930337927128,1312.087912087912
1650462805163.2449,257.79036827195466,1313.5531135531135
1650462805164.208,257.6930337927128,1314.2857142857142
1650462805164.438,257.88777630833175,1312.8205128205127
1650462805180.644,257.5957727873183,1311.3553113553112
1650462805181.774,257.5957727873183,1308.4249084249084
1650462805192.939,257.6930337927128,1306.227106227106
1650462805201.813,257.6930337927128,1306.9597069597069
1650462805202.01,257.4985851726089,1308.4249084249084
1650462805233.043,257.4985851726089,1310.6227106227104
1650462805234.264,257.5957727873183,1312.087912087912
1650462805245.648,257.4985851726089,1315.018315018315
1650462805245.844,257.4985851726089,1317.216117216117
1650462805246.802,257.4985851726089,1322.3443223443223
1650462805255.758,257.40147086554776,1328.2051282051282
1650462805285.396,257.4985851726089,1332.6007326007325
1650462805285.5562,257.40147086554776,1336.9963369963368
1650462805301.869,257.40147086554776,1339.9267399267399
1650462805302.928,257.4985851726089,1344.3223443223442
1650462805304.124,257.40147086554776,1345.054945054945
1650462805304.3389,257.20746184284906,1342.1245421245421
1650462805305.413,257.40147086554776,1337.7289377289376
1650462805314.117,257.3044297832233,1332.6007326007325
1650462805314.282,257.20746184284906,1326.7399267399267
1650462805340.57,257.20746184284906,1320.14652014652
1650462805341.8591,257.3044297832233,1314.2857142857142
1650462805365.477,257.3044297832233,1309.89010989011
1650462805365.68,257.40147086554776,1305.4945054945053
1650462805366.572,257.20746184284906,1304.0293040293038
1650462805368.0361,257.3044297832233,1303.2967032967033
1650462805381.659,257.3044297832233,1299.6336996336995
1650462805382.719,257.110566961763,1299.6336996336995
1650462805382.8472,257.01374505742797,1296.7032967032967
1650462805408.012,257.110566961763,1294.5054945054944
1650462805409.193,257.20746184284906,1293.7728937728937
1650462805409.452,257.3044297832233,1293.040293040293
1650462805426.939,257.01374505742797,1293.7728937728937
1650462805428.0479,257.110566961763,1293.040293040293
1650462805441.74,257.20746184284906,1293.040293040293
1650462805441.997,257.20746184284906,1292.3076923076922
1650462805473.217,257.110566961763,1293.040293040293
1650462805474.332,257.110566961763,1291.5750915750914
1650462805484.2478,257.110566961763,1290.10989010989
1650462805484.478,257.20746184284906,1289.3772893772893
1650462805485.554,257.110566961763,1287.9120879120878
1650462805486.733,257.110566961763,1284.9816849816848
1650462805500.381,257.01374505742797,1281.3186813186812
1650462805531.731,257.01374505742797,1276.923076923077
1650462805532.1292,256.9169960474308,1276.923076923077
1650462805532.9211,257.110566961763,1278.3882783882782
1650462805545.357,257.110566961763,1279.120879120879
1650462805546.4622,257.01374505742797,1279.8534798534797
1650462805546.6,257.01374505742797,1282.7838827838827
1650462805552.815,257.01374505742797,1285.7142857142856
1650462805577.922,256.9169960474308,1290.10989010989
1650462805578.079,257.01374505742797,1295.2380952380952
1650462805579.129,257.01374505742797,1297.4358974358975
1650462805605.866,257.110566961763,1299.6336996336995
1650462805606.6,256.9169960474308,1300.3663003663003
1650462805606.739,257.01374505742797,1298.168498168498
1650462805607.912,256.9169960474308,1294.5054945054944
1650462805643.022,257.01374505742797,1289.3772893772893
1650462805644.143,257.01374505742797,1284.9816849816848
1650462805660.406,257.01374505742797,1279.120879120879
1650462805660.5981,256.9169960474308,1274.7252747252746
1650462805661.808,257.110566961763,1269.5970695970695
1650462805662.914,257.110566961763,1264.4688644688645
1650462805664.144,257.110566961763,1260.8058608058607
1650462805664.352,257.01374505742797,1259.3406593406592
1650462805677.9949,257.01374505742797,1258.6080586080586
1650462805705.42,257.110566961763,1260.07326007326
1650462805705.617,257.01374505742797,1262.2710622710622
1650462805706.695,257.01374505742797,1268.131868131868
1650462805730.5142,257.110566961763,1280.5860805860805
1650462805731.689,257.110566961763,1300.3663003663003
1650462805731.889,257.20746184284906,1328.937728937729
1650462805733.1182,257.01374505742797,1369.9633699633698
1650462805741.687,257.20746184284906,1419.7802197802198
1650462805770.55,257.110566961763,1477.6556776556777
1650462805770.813,257.01374505742797,1539.194139194139
1650462805771.75,257.01374505742797,1600.0
1650462805786.9001,257.110566961763,1657.8754578754579
1650462805787.984,257.110566961763,1709.1575091575091
1650462805788.179,257.110566961763,1748.7179487179485
1650462805794.252,257.110566961763,1777.2893772893772
1650462805821.9358,257.110566961763,1788.278388278388
1650462805822.9329,257.01374505742797,1786.8131868131868
1650462805845.57,257.3044297832233,1772.161172161172
1650462805845.7651,257.110566961763,1749.4505494505493
1650462805846.792,257.20746184284906,1716.4835164835163
1650462805848.044,257.20746184284906,1679.120879120879
1650462805858.1619,257.20746184284906,1637.3626373626373
1650462805858.381,257.20746184284906,1596.3369963369962
1650462805888.1099,257.110566961763,1553.8461538461538
1650462805889.447,257.20746184284906,1515.018315018315
1650462805901.815,257.20746184284906,1479.120879120879
1650462805902.0132,257.110566961763,1449.8168498168498
1650462805903.06,257.3044297832233,1424.9084249084249
1650462805904.35,257.20746184284906,1405.128205128205
1650462805918.166,257.20746184284906,1391.2087912087911
1650462805918.4219,257.20746184284906,1382.4175824175823
1650462805943.023,257.20746184284906,1378.021978021978
1650462805944.21,257.3044297832233,1376.5567765567764
1650462805944.407,257.3044297832233,1379.4871794871794
1650462805964.546,257.20746184284906,1380.952380952381
1650462805965.575,257.3044297832233,1383.150183150183
1650462805974.172,257.40147086554776,1386.080586080586
1650462805974.363,257.4985851726089,1387.5457875457876
1650462805982.947,257.3044297832233,1390.4761904761904
1650462806008.127,257.3044297832233,1392.6739926739926
1650462806025.419,257.40147086554776,1400.0
1650462806026.618,257.4985851726089,1408.058608058608
1650462806026.815,257.40147086554776,1419.7802197802198
1650462806028.064,257.40147086554776,1430.03663003663
1650462806029.222,257.4985851726089,1441.0256410256409
1650462806042.8801,257.4985851726089,1452.7472527472526
1650462806043.082,257.40147086554776,1463.003663003663
1650462806073.239,257.5957727873183,1473.260073260073
1650462806074.2222,257.5957727873183,1479.8534798534797
1650462806081.866,257.5957727873183,1482.7838827838827
1650462806082.063,257.4985851726089,1483.5164835164835
1650462806082.9958,257.5957727873183,1481.3186813186812
1650462806096.8708,257.5957727873183,1476.1904761904761
1650462806097.068,257.5957727873183,1468.131868131868
1650462806123.3162,257.4985851726089,1458.6080586080584
1650462806124.35,257.6930337927128,1447.6190476190475
1650462806147.022,257.6930337927128,1434.4322344322343
1650462806147.829,257.79036827195466,1421.245421245421
1650462806147.979,257.6930337927128,1410.989010989011
1650462806149.2988,257.79036827195466,1400.7326007326005
1650462806180.655,257.79036827195466,1389.7435897435896
1650462806181.78,257.5957727873183,1379.4871794871794
1650462806181.982,257.79036827195466,1367.7655677655678
1650462806202.031,257.88777630833175,1357.5091575091574
1650462806202.8699,257.88777630833175,1350.18315018315
1650462806204.188,257.88777630833175,1342.8571428571427
1650462806204.388,257.88777630833175,1334.7985347985348
1650462806209.436,257.98525798525793,1326.7399267399267
1650462806223.1382,257.88777630833175,1320.8791208791208
1650462806223.392,258.0828133862734,1315.018315018315
1650462806257.125,257.98525798525793,1308.4249084249084
1650462806257.963,258.0828133862734,1302.5641025641025
1650462806264.142,258.0828133862734,1299.6336996336995
1650462806265.432,258.0828133862734,1298.9010989010987
1650462806265.6282,258.0828133862734,1300.3663003663003
1650462806270.497,258.0828133862734,1301.8315018315018
1650462806302.0352,258.0828133862734,1300.3663003663003
1650462806302.978,258.1804425950445,1297.4358974358975
1650462806303.217,258.1804425950445,1298.168498168498
1650462806326.9192,258.2781456953643,1298.9010989010987
1650462806327.816,258.1804425950445,1301.098901098901
1650462806329.213,258.2781456953643,1304.0293040293038
1650462806329.4111,258.2781456953643,1311.3553113553112
1650462806335.749,258.3759227711528,1315.7509157509157
1650462806365.733,258.1804425950445,1320.8791208791208
1650462806366.7158,258.1804425950445,1323.8095238095236
1650462806366.924,258.2781456953643,1327.4725274725274
1650462806383.499,258.2781456953643,1327.4725274725274
1650462806388.146,258.47377390645715,1329.6703296703297
1650462806388.344,258.2781456953643,1332.6007326007325
1650462806397.0808,258.3759227711528,1334.065934065934
1650462806398.072,258.47377390645715,1334.7985347985348
1650462806425.664,258.47377390645715,1334.7985347985348
1650462806425.865,258.47377390645715,1336.9963369963368
1650462806426.7349,258.5716991854518,1337.7289377289376
1650462806442.881,258.5716991854518,1335.5311355311355
1650462806443.939,258.5716991854518,1331.8681318681317
1650462806445.183,258.76777251184836,1327.4725274725274
1650462806445.3171,258.6696986924389,1323.8095238095236
1650462806482.9321,258.6696986924389,1317.216117216117
1650462806484.224,258.6696986924389,1314.2857142857142
1650462806506.71,258.76777251184836,1311.3553113553112
1650462806506.9539,258.6696986924389,1312.087912087912
1650462806507.983,258.76777251184836,1311.3553113553112
1650462806509.1729,258.6696986924389,1309.89010989011
1650462806511.46,258.76777251184836,1307.6923076923076
1650462806511.668,258.76777251184836,1304.7619047619046
1650462806536.908,258.8659207282382,1302.5641025641025
1650462806537.971,258.8659207282382,1303.2967032967033
1650462806538.1711,259.0624406908332,1303.2967032967033
1650462806564.408,258.96414342629487,1305.4945054945053
1650462806565.5771,258.96414342629487,1306.227106227106
1650462806566.565,258.96414342629487,1306.227106227106
1650462806575.833,259.16081260679704,1306.227106227106
1650462806576.002,258.96414342629487,1307.6923076923076
1650462806608.145,259.0624406908332,1308.4249084249084
1650462806609.336,259.0624406908332,1307.6923076923076
1650462806609.605,259.2592592592593,1306.227106227106
1650462806623.2222,259.16081260679704,1306.227106227106
1650462806624.218,259.16081260679704,1304.0293040293038
1650462806625.31,259.16081260679704,1300.3663003663003
1650462806639.3572,259.2592592592593,1297.4358974358975
1650462806639.6438,259.16081260679704,1296.7032967032967
1650462806674.586,259.35778073342203,1294.5054945054944
1650462806675.48,259.35778073342203,1293.7728937728937
1650462806683.033,259.35778073342203,1293.040293040293
1650462806683.2239,259.2592592592593,1293.040293040293
1650462806684.311,259.456377114617,1296.7032967032967
1650462806685.4229,259.456377114617,1308.4249084249084
1650462806699.352,259.456377114617,1329.6703296703297
1650462806699.615,259.456377114617,1358.974358974359
1650462806725.528,259.456377114617,1398.5347985347985
1650462806726.6519,259.5550484883058,1448.3516483516482
1650462806726.841,259.65379494007993,1506.227106227106
1650462806745.7012,259.5550484883058,1569.230769230769
1650462806746.692,259.65379494007993,1630.7692307692307
1650462806747.918,259.65379494007993,1687.179487179487
1650462806763.123,259.8515134209024,1739.194139194139
1650462806763.36,259.65379494007993,1782.4175824175823
1650462806788.296,259.7526165556613,1812.4542124542124
1650462806789.337,259.8515134209024,1826.3736263736262
1650462806806.855,259.7526165556613,1827.8388278388277
1650462806807.093,259.8515134209024,1816.117216117216
1650462806808.079,259.95048562178636,1794.139194139194
1650462806809.207,259.95048562178636,1761.172161172161
1650462806823.175,259.95048562178636,1721.6117216117216
1650462806823.414,259.95048562178636,1678.3882783882782
1650462806855.726,260.04953324442755,1630.03663003663
1650462806856.8088,260.04953324442755,1584.6153846153845
1650462806868.35,260.1486563750715,1539.9267399267399
1650462806868.603,260.1486563750715,1501.8315018315018
1650462806869.2578,260.1486563750715,1466.6666666666665
1650462806878.226,260.1486563750715,1436.6300366300366
1650462806906.667,260.24785510009536,1412.4542124542124
1650462806906.868,260.1486563750715,1394.139194139194
1650462806925.567,260.24785510009536,1377.2893772893772
1650462806926.77,260.34712950600806,1362.6373626373625
1650462806927.907,260.34712950600806,1353.8461538461538
1650462806928.108,260.34712950600806,1350.18315018315
1650462806929.337,260.44647967945053,1348.7179487179487
1650462806942.964,260.44647967945053,1349.4505494505493
1650462806979.634,260.34712950600806,1351.6483516483515
1650462806979.892,260.44647967945053,1351.6483516483515
1650462806980.536,260.545905707196,1353.8461538461538
1650462806981.668,260.545905707196,1358.2417582417581
1650462806982.755,260.6454076761505,1368.4981684981683
1650462806982.947,260.545905707196,1382.4175824175823
1650462806996.9011,260.6454076761505,1398.5347985347985
1650462806997.884,260.74498567335246,1417.5824175824175
1650462807026.666,260.74498567335246,1438.8278388278388
1650462807026.928,260.74498567335246,1458.6080586080584
1650462807028.03,260.84463978597364,1473.260073260073
1650462807045.783,260.84463978597364,1485.7142857142856
1650462807046.635,260.84463978597364,1494.5054945054944
1650462807046.8298,260.84463978597364,1503.2967032967033
1650462807051.728,260.94437010131907,1507.6923076923076
1650462807084.272,260.84463978597364,1506.9597069597069
1650462807103.205,260.94437010131907,1501.8315018315018
1650462807103.462,260.94437010131907,1490.10989010989
1650462807104.3389,261.04417670682733,1476.923076923077
1650462807105.603,261.04417670682733,1461.5384615384614
1650462807106.6821,260.94437010131907,1446.153846153846
1650462807106.876,261.14405969007083,1428.5714285714284
1650462807120.819,261.14405969007083,1410.989010989011
1650462807121.722,261.04417670682733,1395.6043956043954
1650462807146.754,261.34405514072375,1381.6849816849815
1650462807147.004,261.244019138756,1370.6959706959706
1650462807148.105,261.34405514072375,1358.974358974359
1650462807163.229,261.34405514072375,1347.985347985348
1650462807164.0798,261.14405969007083,1340.6593406593406
1650462807164.287,261.34405514072375,1335.5311355311355
1650462807178.204,261.44416778394947,1330.4029304029302
1650462807206.9111,261.44416778394947,1326.007326007326
1650462807207.151,261.44416778394947,1322.3443223443223
1650462807208.195,261.44416778394947,1320.8791208791208
1650462807223.16,261.44416778394947,1319.4139194139193
1650462807224.201,261.5443571565434,1320.14652014652
1650462807224.401,261.644623346751,1320.14652014652
1650462807230.659,261.5443571565434,1320.8791208791208
1650462807257.092,261.644623346751,1320.14652014652
1650462807258.0,261.5443571565434,1318.6813186813185
1650462807284.2878,261.8453865336659,1317.216117216117
1650462807284.54,261.644623346751,1315.018315018315
1650462807285.5981,261.74496644295306,1313.5531135531135
1650462807286.798,261.8453865336659,1313.5531135531135
1650462807295.542,261.74496644295306,1315.018315018315
1650462807295.785,261.74496644295306,1313.5531135531135
1650462807300.7358,261.8453865336659,1312.8205128205127
1650462807330.7332,261.8453865336659,1309.89010989011
1650462807330.98,261.8453865336659,1308.4249084249084
1650462807344.2969,261.8453865336659,1307.6923076923076
1650462807345.593,261.74496644295306,1306.9597069597069
1650462807359.437,261.9458837075418,1307.6923076923076
1650462807359.685,262.0464580533692,1309.89010989011
1650462807385.72,261.9458837075418,1314.2857142857142
1650462807386.776,262.0464580533692,1318.6813186813185
1650462807408.137,261.8453865336659,1323.076923076923
1650462807409.15,262.147109660073,1326.007326007326
1650462807409.3462,262.147109660073,1328.937728937729
1650462807410.4978,262.147109660073,1328.2051282051282
1650462807411.5469,262.147109660073,1328.2051282051282
1650462807411.733,262.3486450124928,1328.2051282051282
1650462807444.34,262.2478386167147,1329.6703296703297
1650462807445.556,262.2478386167147,1328.937728937729
1650462807463.096,262.3486450124928,1326.7399267399267
1650462807464.292,262.4495289367429,1325.2747252747251
1650462807464.505,262.2478386167147,1325.2747252747251
1650462807468.084,262.3486450124928,1326.007326007326
1650462807469.249,262.3486450124928,1325.2747252747251
1650462807483.123,262.4495289367429,1325.2747252747251
1650462807483.36,262.3486450124928,1323.8095238095236
1650462807511.973,262.4495289367429,1320.14652014652
1650462807512.9658,262.5504904789383,1317.216117216117
1650462807525.6392,262.5504904789383,1314.2857142857142
1650462807525.837,262.4495289367429,1314.2857142857142
1650462807526.773,262.65152972868964,1314.2857142857142
1650462807531.9978,262.5504904789383,1315.7509157509157
1650462807532.2559,262.7526467757459,1315.7509157509157
1650462807565.734,262.5504904789383,1315.018315018315
1650462807566.7952,262.65152972868964,1312.087912087912
1650462807584.316,262.65152972868964,1308.4249084249084
1650462807585.454,262.7526467757459,1303.2967032967033
1650462807585.624,262.7526467757459,1299.6336996336995
1650462807586.7852,262.7526467757459,1295.970695970696
1650462807595.7998,262.65152972868964,1293.040293040293
1650462807620.9158,262.5504904789383,1289.3772893772893
1650462807621.116,262.7526467757459,1283.5164835164835
1650462807621.829,262.85384170999424,1280.5860805860805
1650462807645.987,262.85384170999424,1276.1904761904761
1650462807646.2432,262.85384170999424,1276.923076923077
1650462807646.72,262.85384170999424,1280.5860805860805
1650462807646.914,262.85384170999424,1285.7142857142856
1650462807660.795,262.9551146214602,1295.2380952380952
1650462807660.9932,262.9551146214602,1307.6923076923076
1650462807673.228,262.85384170999424,1326.7399267399267
1650462807674.284,263.05646560030834,1356.0439560439559
1650462807699.104,263.05646560030834,1397.069597069597
1650462807700.4521,263.05646560030834,1449.084249084249
1650462807700.653,263.05646560030834,1513.5531135531135
1650462807710.57,263.05646560030834,1583.150183150183
1650462807719.435,263.15789473684214,1657.8754578754579
1650462807747.149,262.9551146214602,1734.065934065934
1650462807747.3992,263.15789473684214,1800.7326007326005
1650462807748.096,263.25940212150437,1858.6080586080584
1650462807764.2952,263.15789473684214,1903.296703296703
1650462807765.459,263.3609878448775,1934.065934065934
1650462807765.667,263.15789473684214,1948.7179487179485
1650462807772.104,263.25940212150437,1946.5201465201465
1650462807797.1611,263.25940212150437,1928.9377289377287
1650462807797.364,263.3609878448775,1900.3663003663003
1650462807798.079,263.25940212150437,1860.07326007326
1650462807824.5398,263.3609878448775,1810.989010989011
1650462807825.4648,263.25940212150437,1757.5091575091574
1650462807827.92,263.5643946707859,1701.098901098901
1650462807828.1199,263.3609878448775,1646.8864468864467
1650462807837.2458,263.46265199768385,1596.3369963369962
1650462807873.3079,263.3609878448775,1551.6483516483515
1650462807873.5608,263.5643946707859,1510.6227106227104
1650462807874.435,263.46265199768385,1475.4578754578754
1650462807885.727,263.5643946707859,1445.4212454212454
1650462807886.6528,263.5643946707859,1424.9084249084249
1650462807887.897,263.66621595518643,1412.4542124542124
1650462807888.098,263.46265199768385,1406.5934065934066
1650462807901.9639,263.66621595518643,1405.128205128205
1650462807902.98,263.5643946707859,1404.3956043956043
1650462807903.166,263.768115942029,1407.3260073260071
1650462807929.467,263.66621595518643,1410.989010989011
1650462807930.552,263.66621595518643,1413.9194139194137
1650462807944.203,263.66621595518643,1418.3150183150183
1650462807949.211,263.5643946707859,1424.9084249084249
1650462807949.401,263.66621595518643,1431.5018315018315
1650462807963.0261,263.768115942029,1440.2930402930401
1650462807992.753,263.768115942029,1449.084249084249
1650462807992.9321,263.9721523883195,1460.8058608058607
1650462807994.094,263.768115942029,1473.260073260073
1650462808002.812,263.768115942029,1486.4468864468863
1650462808003.898,263.87009472259814,1499.6336996336995
1650462808014.0222,263.9721523883195,1509.89010989011
1650462808014.267,263.87009472259814,1517.216117216117
1650462808022.8528,263.9721523883195,1523.0769230769229
1650462808051.651,263.9721523883195,1526.007326007326
1650462808052.6582,263.87009472259814,1528.2051282051282
1650462808052.708,263.9721523883195,1525.2747252747251
1650462808060.2952,264.0742890307603,1519.4139194139193
1650462808061.399,264.0742890307603,1512.087912087912
1650462808075.213,264.0742890307603,1501.098901098901
1650462808075.354,264.0742890307603,1488.6446886446886
1650462808105.325,264.0742890307603,1473.260073260073
1650462808106.568,264.0742890307603,1455.6776556776556
1650462808120.186,264.17650474162957,1436.6300366300366
1650462808120.3152,264.0742890307603,1420.5128205128203
1650462808121.51,264.0742890307603,1405.128205128205
1650462808135.305,264.2787996127783,1389.7435897435896
1650462808135.493,264.17650474162957,1375.091575091575
1650462808141.761,264.17650474162957,1361.1721611721612
1650462808171.9119,264.17650474162957,1347.2527472527472
1650462808172.7632,264.2787996127783,1336.263736263736
1650462808173.045,264.2787996127783,1328.2051282051282
1650462808183.2422,264.17650474162957,1325.2747252747251
1650462808184.31,264.3811737361999,1323.8095238095236
1650462808185.261,264.2787996127783,1323.8095238095236
1650462808199.359,264.48362720403026,1324.5421245421244
1650462808199.549,264.2787996127783,1324.5421245421244
1650462808224.139,264.3811737361999,1324.5421245421244
1650462808225.251,264.3811737361999,1325.2747252747251
1650462808225.41,264.48362720403026,1326.7399267399267
1650462808244.179,264.3811737361999,1328.937728937729
1650462808245.449,264.3811737361999,1329.6703296703297
1650462808246.5679,264.3811737361999,1329.6703296703297
1650462808260.27,264.5861601085482,1332.6007326007325
1650462808260.3792,264.3811737361999,1334.7985347985348
1650462808298.196,264.48362720403026,1337.7289377289376
1650462808299.197,264.5861601085482,1340.6593406593406
1650462808300.3672,264.5861601085482,1343.5897435897434
1650462808300.549,264.48362720403026,1345.7875457875457
1650462808301.6812,264.5861601085482,1347.985347985348
1650462808317.731,264.5861601085482,1346.5201465201465
1650462808347.813,264.5861601085482,1345.7875457875457
1650462808347.93,264.5861601085482,1345.054945054945
1650462808349.041,264.6887725421757,1345.7875457875457
1650462808364.1611,264.6887725421757,1346.5201465201465
1650462808365.271,264.6887725421757,1348.7179487179487
1650462808365.44,264.6887725421757,1346.5201465201465
1650462808366.555,264.6887725421757,1344.3223443223442
1650462808380.234,264.6887725421757,1340.6593406593406
1650462808381.4548,264.5861601085482,1337.7289377289376
1650462808381.553,264.6887725421757,1333.3333333333333
1650462808408.03,264.7914645974782,1330.4029304029302
1650462808409.2268,264.7914645974782,1328.2051282051282
1650462808429.32,264.7914645974782,1326.7399267399267
1650462808429.519,264.7914645974782,1327.4725274725274
1650462808430.5042,264.7914645974782,1330.4029304029302
1650462808455.519,264.7914645974782,1332.6007326007325
1650462808456.805,264.6887725421757,1334.7985347985348
1650462808482.054,264.7914645974782,1335.5311355311355
1650462808483.074,264.89423636716475,1333.3333333333333
1650462808484.204,264.89423636716475,1327.4725274725274
1650462808484.416,265.1000194212468,1320.14652014652
1650462808485.472,264.89423636716475,1312.8205128205127
1650462808494.613,264.89423636716475,1306.9597069597069
1650462808500.4722,264.99708794408855,1302.5641025641025
1650462808526.942,264.99708794408855,1298.9010989010987
1650462808527.139,264.99708794408855,1298.168498168498
1650462808527.98,265.1000194212468,1295.970695970696
1650462808545.785,264.99708794408855,1296.7032967032967
1650462808546.684,265.1000194212468,1295.970695970696
1650462808546.9019,264.99708794408855,1296.7032967032967
1650462808555.804,264.99708794408855,1298.168498168498
1650462808585.587,265.1000194212468,1299.6336996336995
1650462808585.7861,265.1000194212468,1301.098901098901
1650462808586.802,265.1000194212468,1302.5641025641025
1650462808600.677,264.99708794408855,1302.5641025641025
1650462808601.685,265.1000194212468,1303.2967032967033
1650462808601.889,264.99708794408855,1303.2967032967033
1650462808602.997,265.2030308917816,1303.2967032967033
1650462808619.649,265.2030308917816,1302.5641025641025
1650462808620.446,265.2030308917816,1299.6336996336995
1650462808653.1118,265.2030308917816,1296.7032967032967
1650462808653.31,265.2030308917816,1293.7728937728937
1650462808654.337,265.3061224489796,1293.040293040293
1650462808664.325,265.3061224489796,1290.8424908424909
1650462808665.4612,265.2030308917816,1289.3772893772893
1650462808665.663,265.2030308917816,1288.6446886446886
1650462808679.3398,265.40929418627263,1290.8424908424909
1650462808704.546,265.3061224489796,1294.5054945054944
1650462808727.9502,265.2030308917816,1299.6336996336995
1650462808728.147,265.3061224489796,1307.6923076923076
1650462808729.309,265.40929418627263,1328.2051282051282
1650462808730.561,265.40929418627263,1361.904761904762
1650462808731.466,265.40929418627263,1408.7912087912086
1650462808731.606,265.40929418627263,1471.062271062271
1650462808759.337,265.40929418627263,1547.2527472527472
1650462808760.4739,265.40929418627263,1632.9670329670328
1650462808784.2122,265.5125461972379,1718.6813186813185
1650462808784.41,265.40929418627263,1800.7326007326005
1650462808785.5872,265.5125461972379,1871.7948717948716
1650462808786.713,265.5125461972379,1928.9377289377287
1650462808792.1392,265.5125461972379,1969.230769230769
1650462808792.341,265.5125461972379,1988.278388278388
1650462808823.075,265.61587857559834,1990.4761904761904
1650462808824.219,265.5125461972379,1969.9633699633698
1650462808846.8398,265.61587857559834,1934.7985347985348
1650462808847.035,265.5125461972379,1885.7142857142856
1650462808848.0889,265.61587857559834,1830.03663003663
1650462808849.216,265.61587857559834,1766.3003663003662
1650462808849.414,265.71929141522287,1701.8315018315018
1650462808858.0552,265.61587857559834,1636.6300366300366
1650462808895.685,265.61587857559834,1576.5567765567764
1650462808896.6912,265.61587857559834,1520.8791208791208
1650462808904.176,265.82278481012656,1473.260073260073
1650462808904.375,265.61587857559834,1434.4322344322343
1650462808905.586,265.71929141522287,1405.128205128205
1650462808906.574,265.71929141522287,1382.4175824175823
1650462808906.699,265.71929141522287,1367.7655677655678
1650462808918.3071,265.71929141522287,1361.904761904762
1650462808946.891,265.71929141522287,1360.4395604395604
1650462808947.782,265.82278481012656,1359.7069597069597
1650462808965.437,265.92635885447106,1362.6373626373625
1650462808965.647,265.71929141522287,1364.102564102564
1650462808966.762,265.82278481012656,1369.9633699633698
1650462808968.01,265.82278481012656,1375.091575091575
1650462808981.684,265.82278481012656,1383.8827838827838
1650462808981.879,265.82278481012656,1393.4065934065934
1650462809011.8188,265.82278481012656,1405.8608058608058
1650462809012.9458,265.92635885447106,1417.5824175824175
1650462809026.637,265.82278481012656,1432.2344322344322
1650462809026.829,265.82278481012656,1447.6190476190475
1650462809028.048,265.92635885447106,1465.201465201465
1650462809034.421,265.92635885447106,1481.3186813186812
1650462809034.6128,265.92635885447106,1497.4358974358972
1650462809043.0242,266.0300136425648,1512.8205128205127
1650462809074.528,266.0300136425648,1526.007326007326
1650462809075.398,265.92635885447106,1535.5311355311355
1650462809075.511,266.0300136425648,1538.4615384615383
1650462809075.613,265.92635885447106,1537.7289377289376
1650462809084.45,266.1337492688633,1532.6007326007325
1650462809097.9258,266.1337492688633,1524.5421245421244
1650462809098.124,266.1337492688633,1513.5531135531135
1650462809124.447,266.0300136425648,1498.168498168498
1650462809125.562,266.0300136425648,1482.051282051282
1650462809141.9128,266.1337492688633,1465.9340659340658
1650462809142.8982,266.23756582796955,1447.6190476190475
1650462809143.091,266.1337492688633,1430.03663003663
1650462809144.305,266.1337492688633,1411.7216117216117
1650462809158.0269,266.1337492688633,1394.8717948717947
1650462809184.173,266.23756582796955,1379.4871794871794
1650462809184.372,266.1337492688633,1363.3699633699632
1650462809185.561,266.23756582796955,1348.7179487179487
1650462809206.791,266.23756582796955,1334.7985347985348
1650462809209.155,266.23756582796955,1324.5421245421244
1650462809209.38,266.23756582796955,1316.4835164835165
1650462809210.5059,266.23756582796955,1309.1575091575091
1650462809246.864,266.23756582796955,1304.0293040293038
1650462809247.94,266.1337492688633,1304.0293040293038
1650462809248.147,266.1337492688633,1304.0293040293038
1650462809264.274,266.3414634146341,1306.227106227106
1650462809265.439,266.23756582796955,1306.9597069597069
1650462809266.59,266.3414634146341,1310.6227106227104
1650462809266.8892,266.23756582796955,1315.018315018315
1650462809272.974,266.3414634146341,1319.4139194139193
1650462809299.417,266.3414634146341,1323.076923076923
1650462809300.4639,266.23756582796955,1325.2747252747251
1650462809300.731,266.3414634146341,1328.2051282051282
1650462809328.032,266.44544212375564,1333.3333333333333
1650462809329.178,266.44544212375564,1336.9963369963368
1650462809330.405,266.44544212375564,1337.7289377289376
1650462809330.677,266.3414634146341,1338.4615384615383
1650462809331.74,266.44544212375564,1339.194139194139
1650462809361.748,266.3414634146341,1339.9267399267399
1650462809362.875,266.3414634146341,1339.194139194139
1650462809363.062,266.44544212375564,1339.9267399267399
1650462809385.692,266.44544212375564,1339.9267399267399
1650462809386.6611,266.3414634146341,1339.9267399267399
1650462809387.835,266.44544212375564,1338.4615384615383
1650462809388.0369,266.44544212375564,1337.7289377289376
1650462809397.059,266.5495020503808,1339.194139194139
1650462809435.323,266.44544212375564,1339.9267399267399
1650462809435.516,266.44544212375564,1339.9267399267399
1650462809436.761,266.44544212375564,1336.9963369963368
1650462809440.475,266.5495020503808,1335.5311355311355
1650462809441.4648,266.5495020503808,1334.065934065934
1650462809450.347,266.5495020503808,1332.6007326007325
1650462809450.5442,266.44544212375564,1332.6007326007325
1650462809459.3489,266.5495020503808,1332.6007326007325
1650462809485.5498,266.65364328970503,1333.3333333333333
1650462809485.748,266.44544212375564,1333.3333333333333
1650462809486.784,266.5495020503808,1332.6007326007325
1650462809507.953,266.65364328970503,1333.3333333333333
1650462809509.164,266.65364328970503,1331.8681318681317
1650462809510.3682,266.7578659370725,1328.2051282051282
1650462809510.561,266.5495020503808,1321.6117216117216
1650462809540.406,266.65364328970503,1317.216117216117
1650462809541.528,266.65364328970503,1311.3553113553112
1650462809541.795,266.65364328970503,1306.227106227106
1650462809565.437,266.5495020503808,1303.2967032967033
1650462809566.7651,266.65364328970503,1304.0293040293038
1650462809567.706,266.5495020503808,1303.2967032967033
1650462809567.875,266.65364328970503,1301.8315018315018
1650462809576.656,266.5495020503808,1300.3663003663003
1650462809604.345,266.65364328970503,1300.3663003663003
1650462809605.28,266.5495020503808,1301.098901098901
1650462809605.502,266.65364328970503,1302.5641025641025
1650462809625.556,266.5495020503808,1303.2967032967033
1650462809626.6912,266.65364328970503,1304.7619047619046
1650462809627.719,266.65364328970503,1305.4945054945053
1650462809636.717,266.7578659370725,1305.4945054945053
1650462809636.924,266.5495020503808,1304.0293040293038
1650462809662.9119,266.65364328970503,1304.7619047619046
1650462809664.171,266.65364328970503,1300.3663003663003
1650462809664.699,266.7578659370725,1296.7032967032967
1650462809685.3599,266.65364328970503,1290.8424908424909
1650462809686.603,266.65364328970503,1288.6446886446886
1650462809687.8,266.7578659370725,1284.9816849816848
1650462809701.644,266.86217008797655,1284.9816849816848
1650462809701.894,266.7578659370725,1288.6446886446886
1650462809726.622,266.7578659370725,1298.168498168498
1650462809727.833,266.86217008797655,1315.7509157509157
1650462809741.455,266.86217008797655,1344.3223443223442
1650462809741.6091,266.7578659370725,1389.7435897435896
1650462809742.805,266.86217008797655,1454.9450549450548
1650462809756.5562,266.86217008797655,1531.8681318681317
1650462809757.804,266.7578659370725,1621.9780219780218
1650462809782.836,266.86217008797655,1714.2857142857142
1650462809790.991,266.86217008797655,1805.128205128205
1650462809791.501,266.96655583805983,1885.7142857142856
1650462809791.779,266.96655583805983,1952.3809523809523
1650462809808.226,266.86217008797655,2001.4652014652013
1650462809830.01,266.96655583805983,2034.4322344322343
1650462809830.156,266.96655583805983,2045.4212454212452
1650462809830.2651,266.96655583805983,2038.0952380952378
1650462809830.375,266.96655583805983,2010.989010989011
1650462809853.3,266.96655583805983,1967.7655677655675
1650462809854.2012,267.07102328311487,1909.8901098901097
1650462809865.57,266.96655583805983,1843.2234432234432
1650462809865.7651,266.96655583805983,1773.6263736263736
1650462809866.653,266.96655583805983,1703.296703296703
1650462809880.53,266.96655583805983,1632.9670329670328
1650462809881.622,266.96655583805983,1567.032967032967
1650462809881.918,266.96655583805983,1505.4945054945053
1650462809908.132,267.07102328311487,1451.2820512820513
1650462809909.324,267.07102328311487,1405.128205128205
1650462809924.26,267.07102328311487,1368.4981684981683
1650462809924.502,266.96655583805983,1343.5897435897434
1650462809925.564,267.07102328311487,1328.937728937729
1650462809939.367,267.17557251908397,1320.14652014652
1650462809939.853,267.17557251908397,1317.216117216117
1650462809969.456,267.07102328311487,1316.4835164835165
1650462809970.564,267.2802036420599,1320.14652014652
1650462809980.645,267.17557251908397,1328.937728937729
1650462809980.8618,267.17557251908397,1340.6593406593406
1650462809983.0,267.17557251908397,1356.7765567765566
1650462809991.983,267.17557251908397,1375.091575091575
1650462810024.2478,267.17557251908397,1391.2087912087911
1650462810025.355,267.07102328311487,1410.2564102564102
1650462810025.5889,267.17557251908397,1429.3040293040292
1650462810042.97,267.2802036420599,1452.7472527472526
1650462810044.333,267.2802036420599,1474.7252747252746
1650462810045.326,267.2802036420599,1498.168498168498
1650462810045.488,267.17557251908397,1520.14652014652
1650462810054.538,267.2802036420599,1540.6593406593406
1650462810079.531,267.2802036420599,1555.311355311355
1650462810104.31,267.07102328311487,1565.5677655677655
1650462810104.5461,267.17557251908397,1569.230769230769
1650462810105.605,267.2802036420599,1569.9633699633698
1650462810106.6958,267.2802036420599,1566.3003663003662
1650462810107.796,267.384916748286,1558.974358974359
1650462810107.906,267.17557251908397,1546.5201465201465
1650462810117.002,267.384916748286,1531.8681318681317
1650462810142.897,267.2802036420599,1512.087912087912
1650462810144.191,267.17557251908397,1490.8424908424906
1650462810144.377,267.2802036420599,1467.3992673992673
1650462810168.179,267.384916748286,1444.6886446886447
1650462810169.393,267.384916748286,1421.245421245421
1650462810171.648,267.384916748286,1400.0
1650462810171.842,267.2802036420599,1379.4871794871794
1650462810198.158,267.384916748286,1360.4395604395604
1650462810198.377,267.384916748286,1342.8571428571427
1650462810198.4812,267.4897119341564,1327.4725274725274
1650462810199.1948,267.384916748286,1315.018315018315
1650462810221.98,267.384916748286,1307.6923076923076
1650462810222.917,267.4897119341564,1302.5641025641025
1650462810223.124,267.4897119341564,1302.5641025641025
1650462810236.978,267.2802036420599,1303.2967032967033
1650462810238.062,267.384916748286,1306.227106227106
1650462810264.314,267.4897119341564,1306.227106227106
1650462810264.555,267.4897119341564,1307.6923076923076
1650462810284.452,267.4897119341564,1309.89010989011
1650462810285.573,267.4897119341564,1315.7509157509157
1650462810286.76,267.4897119341564,1317.9487179487178
1650462810287.892,267.4897119341564,1319.4139194139193
1650462810288.083,267.4897119341564,1321.6117216117216
1650462810301.925,267.4897119341564,1325.2747252747251
1650462810334.438,267.59458929621644,1328.2051282051282
1650462810335.367,267.69954893116295,1330.4029304029302
1650462810335.492,267.4897119341564,1331.135531135531
1650462810344.305,267.59458929621644,1331.8681318681317
1650462810345.5588,267.59458929621644,1331.135531135531
1650462810359.0342,267.2802036420599,1330.4029304029302
1650462810359.23,267.59458929621644,1328.2051282051282
1650462810387.073,267.4897119341564,1327.4725274725274
1650462810387.862,267.59458929621644,1328.2051282051282
1650462810388.052,267.69954893116295,1327.4725274725274
1650462810404.413,267.59458929621644,1327.4725274725274
1650462810405.428,267.69954893116295,1327.4725274725274
1650462810405.659,267.59458929621644,1323.076923076923
1650462810405.7678,267.69954893116295,1320.8791208791208
1650462810419.616,267.69954893116295,1319.4139194139193
1650462810449.513,267.59458929621644,1319.4139194139193
1650462810450.413,267.69954893116295,1318.6813186813185
1650462810466.9001,267.69954893116295,1318.6813186813185
1650462810467.134,267.69954893116295,1318.6813186813185
1650462810468.073,267.8045909358446,1320.14652014652
1650462810469.121,267.69954893116295,1317.216117216117
1650462810469.328,267.8045909358446,1313.5531135531135
1650462810480.8481,267.8045909358446,1309.89010989011
1650462810510.7551,267.59458929621644,1305.4945054945053
1650462810511.461,267.8045909358446,1300.3663003663003
1650462810521.871,267.8045909358446,1297.4358974358975
1650462810522.0598,267.8045909358446,1297.4358974358975
1650462810522.968,267.8045909358446,1300.3663003663003
1650462810536.987,267.8045909358446,1301.098901098901
1650462810537.208,267.69954893116295,1304.7619047619046
1650462810543.02,267.8045909358446,1304.7619047619046
1650462810570.848,267.69954893116295,1306.227106227106
1650462810571.464,267.909715407262,1306.9597069597069
1650462810583.147,267.8045909358446,1309.89010989011
1650462810583.3809,267.8045909358446,1309.1575091575091
1650462810584.351,267.69954893116295,1309.89010989011
1650462810597.908,267.8045909358446,1308.4249084249084
1650462810598.0881,267.8045909358446,1307.6923076923076
1650462810630.747,267.8045909358446,1306.227106227106
1650462810631.759,267.8045909358446,1306.227106227106
1650462810644.34,267.909715407262,1304.0293040293038
1650462810645.488,267.909715407262,1301.098901098901
1650462810645.732,267.909715407262,1298.168498168498
1650462810646.7422,267.909715407262,1295.970695970696
1650462810660.36,267.909715407262,1291.5750915750914
1650462810660.554,267.909715407262,1287.179487179487
1650462810694.742,267.909715407262,1284.9816849816848
1650462810695.43,268.0149224425682,1286.4468864468863
1650462810700.459,267.909715407262,1290.8424908424909
1650462810701.648,267.909715407262,1305.4945054945053
1650462810701.8362,267.909715407262,1328.937728937729
1650462810710.578,267.8045909358446,1369.230769230769
1650462810719.415,268.0149224425682,1424.1758241758241
1650462810745.678,267.8045909358446,1495.2380952380952
1650462810745.865,268.0149224425682,1578.021978021978
1650462810746.876,268.0149224425682,1671.0622710622708
1650462810763.138,267.909715407262,1765.5677655677655
1650462810763.3728,268.0149224425682,1856.4102564102564
1650462810771.976,268.0149224425682,1939.194139194139
1650462810777.985,268.0149224425682,2008.7912087912086
1650462810807.035,268.0149224425682,2060.07326007326
1650462810807.2751,267.909715407262,2088.6446886446884
1650462810808.0151,268.0149224425682,2093.7728937728934
1650462810822.003,268.12021213906894,2074.7252747252746
1650462810824.11,268.0149224425682,2035.8974358974358
1650462810825.335,268.12021213906894,1982.4175824175823
1650462810825.563,268.0149224425682,1918.6813186813185
1650462810839.5,268.0149224425682,1848.3516483516482
1650462810840.477,268.12021213906894,1775.091575091575
1650462810840.7139,268.0149224425682,1699.6336996336995
1650462810865.707,268.12021213906894,1628.5714285714284
1650462810866.7979,268.12021213906894,1564.8351648351647
1650462810884.2249,268.12021213906894,1509.1575091575091
1650462810885.4202,267.909715407262,1463.7362637362637
1650462810885.654,268.12021213906894,1425.6410256410256
1650462810899.375,268.12021213906894,1399.2673992673992
1650462810925.57,268.12021213906894,1379.4871794871794
1650462810926.678,268.12021213906894,1369.230769230769
1650462810926.884,268.12021213906894,1362.6373626373625
1650462810952.177,268.0149224425682,1364.102564102564
1650462810952.93,268.12021213906894,1367.7655677655678
1650462810954.122,268.2255845942228,1376.5567765567764
1650462810954.312,268.12021213906894,1384.6153846153845
1650462810959.373,268.12021213906894,1391.2087912087911
1650462810995.565,268.0149224425682,1397.069597069597
1650462810995.788,268.12021213906894,1402.197802197802
1650462810996.8618,268.12021213906894,1409.5238095238094
1650462811010.727,268.12021213906894,1421.245421245421
1650462811011.486,268.12021213906894,1433.6996336996335
1650462811012.898,268.12021213906894,1448.3516483516482
1650462811013.093,268.12021213906894,1463.003663003663
1650462811039.505,268.12021213906894,1478.3882783882782
1650462811040.5,268.2255845942228,1490.10989010989
1650462811040.735,268.2255845942228,1501.098901098901
1650462811066.915,268.2255845942228,1509.1575091575091
1650462811067.1548,268.0149224425682,1516.4835164835163
1650462811067.966,268.2255845942228,1520.14652014652
1650462811072.9512,268.2255845942228,1523.0769230769229
1650462811073.154,268.2255845942228,1520.14652014652
1650462811099.545,268.0149224425682,1516.4835164835163
1650462811100.6938,268.2255845942228,1506.9597069597069
1650462811125.53,268.2255845942228,1495.2380952380952
1650462811125.772,268.2255845942228,1477.6556776556777
1650462811126.911,268.12021213906894,1460.07326007326
1650462811130.504,268.12021213906894,1438.095238095238
1650462811139.663,268.12021213906894,1418.3150183150183
1650462811139.9119,268.2255845942228,1399.2673992673992
1650462811164.621,268.12021213906894,1381.6849816849815
1650462811165.573,268.2255845942228,1363.3699633699632
1650462811191.885,268.2255845942228,1345.054945054945
1650462811192.133,268.2255845942228,1325.2747252747251
1650462811193.1,268.12021213906894,1311.3553113553112
1650462811198.134,268.2255845942228,1300.3663003663003
1650462811200.4148,268.12021213906894,1293.7728937728937
1650462811200.625,268.12021213906894,1289.3772893772893
1650462811225.668,268.12021213906894,1286.4468864468863
1650462811226.735,268.2255845942228,1282.7838827838827
1650462811227.002,268.2255845942228,1280.5860805860805
1650462811249.495,268.2255845942228,1279.8534798534797
1650462811250.63,268.12021213906894,1281.3186813186812
1650462811251.528,268.2255845942228,1280.5860805860805
1650462811278.141,268.2255845942228,1279.120879120879
1650462811278.34,268.2255845942228,1278.3882783882782
1650462811279.309,268.12021213906894,1280.5860805860805
1650462811305.841,268.33103990564183,1284.2490842490843
1650462811306.043,268.2255845942228,1289.3772893772893
1650462811306.822,268.33103990564183,1293.7728937728937
1650462811315.888,268.2255845942228,1299.6336996336995
1650462811340.6228,268.12021213906894,1304.0293040293038
1650462811340.821,268.33103990564183,1306.227106227106
1650462811341.902,268.2255845942228,1306.9597069597069
1650462811368.15,268.12021213906894,1306.9597069597069
1650462811369.407,268.2255845942228,1307.6923076923076
1650462811378.122,268.2255845942228,1309.1575091575091
1650462811378.32,268.2255845942228,1309.1575091575091
1650462811379.355,268.2255845942228,1307.6923076923076
1650462811380.479,268.2255845942228,1306.227106227106
1650462811405.739,268.2255845942228,1306.227106227106
1650462811405.986,268.33103990564183,1306.227106227106
1650462811406.93,268.12021213906894,1305.4945054945053
1650462811429.501,268.2255845942228,1304.0293040293038
1650462811430.435,268.2255845942228,1304.0293040293038
1650462811430.8,268.12021213906894,1304.0293040293038
1650462811431.619,268.12021213906894,1305.4945054945053
1650462811458.2988,268.33103990564183,1306.9597069597069
1650462811459.107,268.12021213906894,1309.89010989011
1650462811459.301,268.33103990564183,1311.3553113553112
1650462811485.882,268.12021213906894,1312.087912087912
1650462811486.698,268.2255845942228,1310.6227106227104
1650462811486.98,268.2255845942228,1307.6923076923076
1650462811494.4429,268.33103990564183,1304.0293040293038
1650462811495.415,268.12021213906894,1301.8315018315018
1650462811496.611,268.2255845942228,1298.9010989010987
1650462811521.873,268.33103990564183,1295.2380952380952
1650462811522.089,268.2255845942228,1290.10989010989
1650462811523.0342,268.2255845942228,1287.179487179487
1650462811548.355,268.2255845942228,1282.7838827838827
1650462811549.267,268.12021213906894,1279.8534798534797
1650462811549.522,268.33103990564183,1273.260073260073
1650462811553.065,268.2255845942228,1270.3296703296703
1650462811578.1318,268.33103990564183,1265.9340659340658
1650462811578.327,268.12021213906894,1260.07326007326
1650462811579.244,268.33103990564183,1254.212454212454
1650462811604.5789,268.2255845942228,1251.2820512820513
1650462811605.501,268.2255845942228,1246.153846153846
1650462811605.746,268.33103990564183,1244.6886446886447
1650462811612.011,268.4365781710914,1244.6886446886447
1650462811613.081,268.2255845942228,1247.6190476190475
1650462811639.512,268.2255845942228,1250.5494505494505
1650462811639.831,268.33103990564183,1253.4798534798533
1650462811664.6199,268.33103990564183,1257.8754578754579
1650462811665.68,268.2255845942228,1260.07326007326
1650462811675.961,268.33103990564183,1261.5384615384614
1650462811676.6208,268.33103990564183,1263.003663003663
1650462811676.821,268.33103990564183,1264.4688644688645
1650462811678.0159,268.2255845942228,1265.9340659340658
1650462811706.837,268.2255845942228,1266.6666666666665
1650462811707.029,268.2255845942228,1264.4688644688645
1650462811707.9612,268.4365781710914,1264.4688644688645
1650462811733.257,268.33103990564183,1264.4688644688645
1650462811734.198,268.33103990564183,1265.2014652014652
1650462811734.427,268.33103990564183,1265.2014652014652
1650462811738.1748,268.4365781710914,1265.2014652014652
1650462811739.199,268.33103990564183,1263.003663003663
1650462811774.41,268.2255845942228,1260.8058608058607
1650462811774.663,268.33103990564183,1260.07326007326
1650462811775.512,268.54219948849106,1260.07326007326
1650462811787.0,268.33103990564183,1266.6666666666665
1650462811788.004,268.4365781710914,1280.5860805860805
1650462811789.143,268.33103990564183,1307.6923076923076
1650462811789.335,268.54219948849106,1347.985347985348
1650462811803.281,268.33103990564183,1408.058608058608
1650462811829.397,268.4365781710914,1480.5860805860805
1650462811829.5889,268.54219948849106,1563.3699633699632
1650462811830.5881,268.64790395591416,1650.5494505494505
1650462811852.072,268.4365781710914,1737.7289377289376
1650462811853.0469,268.54219948849106,1815.3846153846152
1650462811854.1492,268.54219948849106,1879.8534798534797
1650462811854.342,268.54219948849106,1926.7399267399267
1650462811879.468,268.33103990564183,1954.5787545787543
1650462811880.523,268.33103990564183,1961.172161172161
1650462811905.617,268.4365781710914,1947.2527472527472
1650462811905.811,268.4365781710914,1919.4139194139193
1650462811906.8,268.4365781710914,1878.3882783882782
1650462811915.8088,268.33103990564183,1824.9084249084249
1650462811940.72,268.54219948849106,1761.172161172161
1650462811940.959,268.54219948849106,1692.3076923076922
1650462811941.7688,268.54219948849106,1625.6410256410256
1650462811966.833,268.4365781710914,1558.2417582417581
1650462811967.865,268.12021213906894,1495.970695970696
1650462811968.12,268.12021213906894,1436.6300366300366
1650462811974.4812,268.0149224425682,1388.278388278388
1650462811975.467,268.12021213906894,1347.985347985348
1650462811976.6892,268.2255845942228,1317.216117216117
1650462811976.885,268.12021213906894,1294.5054945054944
1650462812014.555,268.2255845942228,1281.3186813186812
1650462812015.3389,268.4365781710914,1269.5970695970695
1650462812025.434,268.54219948849106,1261.5384615384614
1650462812025.664,268.7536916715889,1255.6776556776556
1650462812026.708,268.54219948849106,1252.7472527472526
1650462812027.986,268.64790395591416,1250.5494505494505
1650462812059.246,268.64790395591416,1246.8864468864467
1650462812059.5332,268.7536916715889,1243.2234432234432
1650462812060.591,268.7536916715889,1240.2930402930401
1650462812085.5852,268.859562733898,1235.164835164835
1650462812086.632,268.9655172413793,1232.967032967033
1650462812086.8372,268.9655172413793,1230.03663003663
1650462812091.8591,268.9655172413793,1228.5714285714284
1650462812093.061,269.0715552927262,1227.8388278388277
1650462812119.439,268.9655172413793,1227.8388278388277
1650462812119.684,269.1776769867876,1232.2344322344322
1650462812120.5562,269.1776769867876,1238.095238095238
1650462812150.702,269.2838824225685,1243.2234432234432
1650462812151.604,269.2838824225685,1251.2820512820513
1650462812151.803,269.1776769867876,1259.3406593406592
1650462812153.108,269.0715552927262,1268.8644688644688
1650462812154.249,269.2838824225685,1282.051282051282
1650462812180.393,269.3901716992303,1296.7032967032967
1650462812180.585,269.4965449160908,1309.89010989011
1650462812181.749,269.60300217262494,1319.4139194139193
1650462812206.866,269.7095435684647,1329.6703296703297
1650462812207.898,269.7095435684647,1338.4615384615383
1650462812208.1658,269.81616920339985,1345.054945054945
1650462812216.958,269.7095435684647,1347.2527472527472
1650462812217.9612,269.7095435684647,1345.054945054945
1650462812244.3171,269.81616920339985,1339.9267399267399
1650462812244.512,269.81616920339985,1334.065934065934
1650462812245.576,269.7095435684647,1325.2747252747251
1650462812271.6628,269.81616920339985,1314.2857142857142
1650462812272.87,269.81616920339985,1303.2967032967033
1650462812273.103,269.81616920339985,1294.5054945054944
1650462812278.032,269.81616920339985,1287.9120879120878
1650462812279.2139,269.92287917737787,1282.7838827838827
1650462812310.828,269.60300217262494,1279.8534798534797
1650462812311.117,269.92287917737787,1274.7252747252746
1650462812311.7239,269.7095435684647,1274.7252747252746
1650462812331.6008,269.92287917737787,1276.923076923077
1650462812332.8591,269.81616920339985,1276.1904761904761
1650462812333.0532,269.92287917737787,1276.1904761904761
1650462812334.1829,269.81616920339985,1276.1904761904761
1650462812377.9248,269.92287917737787,1276.1904761904761
1650462812378.143,269.92287917737787,1275.4578754578754
1650462812379.156,270.02967359050444,1275.4578754578754
1650462812390.469,269.92287917737787,1275.4578754578754
1650462812391.52,270.02967359050444,1274.7252747252746
1650462812392.88,270.1365525430437,1276.923076923077
1650462812393.1738,270.2435161354187,1280.5860805860805
1650462812394.1482,270.02967359050444,1282.051282051282
1650462812419.118,270.1365525430437,1282.7838827838827
1650462812420.3801,270.2435161354187,1282.051282051282
1650462812420.66,270.2435161354187,1282.051282051282
1650462812445.61,270.02967359050444,1282.051282051282
1650462812446.472,270.1365525430437,1281.3186813186812
1650462812452.961,270.35056446821153,1279.8534798534797
1650462812453.1602,270.4576976421636,1277.6556776556777
1650462812454.091,270.2435161354187,1276.923076923077
1650462812487.0442,270.35056446821153,1276.1904761904761
1650462812487.986,270.4576976421636,1277.6556776556777
1650462812488.19,270.4576976421636,1277.6556776556777
1650462812506.74,270.35056446821153,1278.3882783882782
1650462812507.7668,270.4576976421636,1274.7252747252746
1650462812509.105,270.4576976421636,1271.062271062271
1650462812509.303,270.5649157581764,1267.3992673992673
1650462812523.203,270.4576976421636,1265.9340659340658
1650462812551.864,270.5649157581764,1264.4688644688645
1650462812552.9749,270.35056446821153,1263.003663003663
1650462812553.173,270.5649157581764,1260.8058608058607
1650462812563.157,270.35056446821153,1259.3406593406592
1650462812564.173,270.5649157581764,1254.9450549450548
1650462812577.885,270.4576976421636,1250.5494505494505
1650462812578.092,270.5649157581764,1247.6190476190475
1650462812611.858,270.4576976421636,1249.084249084249
1650462812612.967,270.4576976421636,1252.014652014652
1650462812613.235,270.5649157581764,1256.4102564102564
1650462812623.276,270.5649157581764,1259.3406593406592
1650462812624.284,270.5649157581764,1263.7362637362637
1650462812637.937,270.4576976421636,1265.9340659340658
1650462812638.146,270.4576976421636,1268.131868131868
1650462812639.27,270.5649157581764,1270.3296703296703
1650462812668.119,270.35056446821153,1272.5274725274724
1650462812669.2961,270.4576976421636,1273.260073260073
1650462812678.0852,270.35056446821153,1274.7252747252746
1650462812678.2961,270.4576976421636,1272.5274725274724
1650462812679.193,270.1365525430437,1270.3296703296703
1650462812691.8472,270.2435161354187,1268.8644688644688
1650462812700.716,270.1365525430437,1266.6666666666665
1650462812700.988,270.35056446821153,1262.2710622710622
1650462812739.571,270.02967359050444,1257.8754578754579
1650462812740.668,270.2435161354187,1254.212454212454
1650462812741.6912,270.2435161354187,1253.4798534798533
1650462812742.043,270.35056446821153,1249.8168498168498
1650462812742.9668,270.1365525430437,1245.4212454212454
1650462812751.6938,270.35056446821153,1239.5604395604396
1650462812751.8972,270.2435161354187,1233.6996336996335
1650462812790.707,270.5649157581764,1229.3040293040292
1650462812791.6218,270.4576976421636,1227.106227106227
1650462812804.146,270.6722189173111,1227.106227106227
1650462812804.364,270.6722189173111,1230.03663003663
1650462812805.5771,270.5649157581764,1238.8278388278388
1650462812806.64,270.4576976421636,1254.9450549450548
1650462812815.673,270.5649157581764,1279.8534798534797
1650462812844.1821,270.4576976421636,1312.8205128205127
1650462812844.423,270.6722189173111,1356.0439560439559
1650462812845.5789,270.5649157581764,1410.2564102564102
1650462812860.631,270.7796072207895,1470.3296703296703
1650462812861.722,270.6722189173111,1534.065934065934
1650462812861.968,270.88708076999404,1595.6043956043954
1650462812862.934,270.6722189173111,1654.212454212454
1650462812877.878,270.7796072207895,1704.7619047619046
1650462812878.0771,270.7796072207895,1745.7875457875457
1650462812913.028,270.88708076999404,1770.6959706959706
1650462812914.249,270.4576976421636,1783.150183150183
1650462812921.818,270.7796072207895,1779.4871794871794
1650462812922.014,270.7796072207895,1760.4395604395604
1650462812922.883,270.7796072207895,1730.4029304029302
1650462812931.961,270.6722189173111,1690.8424908424906
1650462812959.2532,270.6722189173111,1644.6886446886447
1650462812959.495,270.88708076999404,1594.139194139194
1650462812960.542,270.7796072207895,1542.1245421245421
1650462812985.558,270.7796072207895,1493.7728937728937
1650462812986.758,270.88708076999404,1446.153846153846
1650462812989.22,270.6722189173111,1402.9304029304028
1650462812989.4531,270.9946396664681,1361.1721611721612
1650462812990.399,270.7796072207895,1329.6703296703297
1650462813016.798,270.7796072207895,1303.2967032967033
1650462813016.997,270.7796072207895,1285.7142857142856
1650462813017.986,270.88708076999404,1273.260073260073
1650462813043.177,270.6722189173111,1267.3992673992673
1650462813044.18,270.7796072207895,1263.003663003663
1650462813044.439,270.7796072207895,1261.5384615384614
1650462813050.7969,270.88708076999404,1262.2710622710622
1650462813051.645,270.6722189173111,1265.9340659340658
1650462813076.8289,270.7796072207895,1270.3296703296703
1650462813077.029,270.6722189173111,1275.4578754578754
1650462813077.99,270.7796072207895,1280.5860805860805
1650462813108.468,270.6722189173111,1288.6446886446886
1650462813109.3088,270.7796072207895,1295.2380952380952
1650462813110.348,271.1022840119166,1303.2967032967033
1650462813110.5461,271.21001390820584,1314.2857142857142
1650462813111.571,270.9946396664681,1331.8681318681317
1650462813141.731,271.1022840119166,1352.3809523809523
1650462813142.0369,271.21001390820584,1375.091575091575
1650462813142.942,271.21001390820584,1398.5347985347985
1650462813168.0378,271.1022840119166,1419.7802197802198
1650462813169.351,271.21001390820584,1433.6996336996335
1650462813170.427,271.21001390820584,1443.2234432234432
1650462813170.6382,271.3178294573643,1446.153846153846
1650462813179.2632,271.1022840119166,1446.8864468864467
1650462813216.752,271.21001390820584,1440.2930402930401
1650462813224.052,271.1022840119166,1431.5018315018315
1650462813224.2751,271.21001390820584,1421.245421245421
1650462813224.4338,270.9946396664681,1408.7912087912086
1650462813225.568,270.88708076999404,1393.4065934065934
1650462813226.5242,270.88708076999404,1373.6263736263736
1650462813226.771,270.88708076999404,1353.8461538461538
1650462813240.405,270.6722189173111,1334.7985347985348
1650462813265.25,270.9946396664681,1317.216117216117
1650462813265.418,270.7796072207895,1296.7032967032967
1650462813266.618,270.6722189173111,1278.3882783882782
1650462813288.0261,270.5649157581764,1259.3406593406592
1650462813289.105,270.5649157581764,1241.7582417582416
1650462813289.5452,270.4576976421636,1223.4432234432234
1650462813290.517,270.35056446821153,1206.5934065934066
1650462813318.21,269.92287917737787,1190.4761904761904
1650462813319.063,270.02967359050444,1175.0915750915751
1650462813344.1611,269.81616920339985,1161.1721611721612
1650462813344.359,269.92287917737787,1147.2527472527472
1650462813345.531,269.7095435684647,1141.3919413919414
1650462813355.853,269.92287917737787,1139.194139194139
1650462813356.714,269.81616920339985,1136.9963369963368
1650462813356.915,269.92287917737787,1138.4615384615383
1650462813386.939,269.81616920339985,1144.3223443223442
1650462813387.823,270.02967359050444,1154.5787545787546
1650462813406.964,270.02967359050444,1167.032967032967
1650462813407.219,270.1365525430437,1178.7545787545787
1650462813407.968,269.92287917737787,1190.4761904761904
1650462813409.153,270.35056446821153,1202.197802197802
1650462813409.379,270.35056446821153,1211.7216117216117
1650462813423.2112,270.35056446821153,1219.047619047619
1650462813448.121,270.2435161354187,1224.1758241758241
1650462813449.1428,270.4576976421636,1227.106227106227
1650462813465.3472,270.35056446821153,1229.3040293040292
1650462813465.545,270.4576976421636,1232.967032967033
1650462813466.5981,270.2435161354187,1237.3626373626373
1650462813472.217,270.35056446821153,1237.3626373626373
1650462813472.464,270.1365525430437,1237.3626373626373
1650462813480.684,270.2435161354187,1236.6300366300366
1650462813507.176,270.2435161354187,1237.3626373626373
1650462813507.9539,270.1365525430437,1237.3626373626373
1650462813508.259,270.2435161354187,1237.3626373626373
1650462813529.418,270.35056446821153,1239.5604395604396
1650462813530.541,270.1365525430437,1246.8864468864467
1650462813531.493,270.4576976421636,1252.7472527472526
1650462813531.781,270.2435161354187,1260.07326007326
1650462813559.292,270.1365525430437,1268.8644688644688
1650462813560.599,270.1365525430437,1276.923076923077
1650462813586.873,270.2435161354187,1282.051282051282
1650462813588.016,270.1365525430437,1284.9816849816848
1650462813588.334,270.2435161354187,1284.9816849816848
1650462813589.281,270.02967359050444,1284.9816849816848
1650462813595.726,270.2435161354187,1282.7838827838827
1650462813626.7322,270.1365525430437,1281.3186813186812
1650462813626.952,270.1365525430437,1279.8534798534797
1650462813627.968,270.02967359050444,1280.5860805860805
1650462813649.411,270.1365525430437,1280.5860805860805
1650462813650.366,270.1365525430437,1282.051282051282
1650462813650.568,270.1365525430437,1285.7142857142856
1650462813651.621,270.02967359050444,1290.8424908424909
1650462813660.383,270.02967359050444,1293.7728937728937
1650462813660.5781,270.02967359050444,1296.7032967032967
1650462813689.472,270.02967359050444,1300.3663003663003
1650462813690.503,269.81616920339985,1304.7619047619046
1650462813710.4248,270.02967359050444,1305.4945054945053
1650462813711.469,269.92287917737787,1306.9597069597069
1650462813711.7642,270.02967359050444,1304.0293040293038
1650462813712.944,269.7095435684647,1301.098901098901
1650462813721.7021,269.81616920339985,1298.168498168498
1650462813754.5828,269.7095435684647,1295.970695970696
1650462813754.781,269.92287917737787,1291.5750915750914
1650462813755.419,269.7095435684647,1288.6446886446886
1650462813765.579,269.81616920339985,1283.5164835164835
1650462813765.774,269.81616920339985,1282.051282051282
1650462813766.703,269.81616920339985,1282.051282051282
1650462813775.7349,269.81616920339985,1284.2490842490843
1650462813805.711,269.60300217262494,1290.8424908424909
1650462813805.9622,269.81616920339985,1302.5641025641025
1650462813823.155,269.81616920339985,1323.076923076923
1650462813824.3179,269.60300217262494,1353.8461538461538
1650462813825.4758,269.60300217262494,1394.139194139194
1650462813826.749,269.4965449160908,1444.6886446886447
1650462813827.003,269.60300217262494,1503.2967032967033
1650462813840.947,269.2838824225685,1569.230769230769
1650462813841.629,269.3901716992303,1635.8974358974358
1650462813841.852,269.3901716992303,1699.6336996336995
1650462813866.6,269.2838824225685,1752.3809523809523
1650462813867.869,269.0715552927262,1794.8717948717947
1650462813889.3052,269.1776769867876,1821.9780219780218
1650462813890.378,268.9655172413793,1835.8974358974358
1650462813890.6318,269.1776769867876,1834.4322344322343
1650462813897.133,268.859562733898,1820.5128205128203
1650462813931.8171,268.9655172413793,1791.9413919413919
1650462813932.0159,269.0715552927262,1749.4505494505493
1650462813942.082,268.9655172413793,1700.3663003663003
1650462813942.888,268.859562733898,1647.6190476190475
1650462813944.159,268.859562733898,1592.6739926739926
1650462813950.542,268.9655172413793,1538.4615384615383
1650462813950.735,268.859562733898,1493.040293040293
1650462813959.241,268.7536916715889,1452.014652014652
1650462813988.04,268.859562733898,1416.8498168498168
1650462813988.314,268.7536916715889,1385.3479853479853
1650462813989.2249,268.859562733898,1358.2417582417581
1650462814006.981,268.54219948849106,1338.4615384615383
1650462814007.797,268.54219948849106,1324.5421245421244
1650462814009.099,268.54219948849106,1315.7509157509157
1650462814009.295,268.54219948849106,1313.5531135531135
1650462814023.1409,268.2255845942228,1317.216117216117
1650462814058.229,268.2255845942228,1320.8791208791208
1650462814059.122,267.909715407262,1328.2051282051282
1650462814059.4932,268.12021213906894,1332.6007326007325
1650462814063.174,267.8045909358446,1339.194139194139
1650462814064.2131,267.69954893116295,1342.1245421245421
1650462814064.44,267.59458929621644,1346.5201465201465
1650462814078.2102,267.69954893116295,1350.9157509157508
1650462814103.314,267.384916748286,1356.0439560439559
1650462814104.2322,267.384916748286,1362.6373626373625
1650462814104.443,267.2802036420599,1370.6959706959706
1650462814124.273,267.2802036420599,1377.2893772893772
1650462814125.709,266.96655583805983,1384.6153846153845
1650462814126.56,266.96655583805983,1392.6739926739926
1650462814140.636,266.86217008797655,1400.7326007326005
1650462814140.882,266.65364328970503,1410.2564102564102
1650462814173.317,266.5495020503808,1417.5824175824175
1650462814174.164,266.5495020503808,1424.1758241758241
1650462814174.3628,266.44544212375564,1429.3040293040292
1650462814183.398,266.5495020503808,1430.03663003663
1650462814184.278,266.23756582796955,1429.3040293040292
1650462814185.356,266.0300136425648,1423.4432234432234
1650462814199.437,266.1337492688633,1416.8498168498168
1650462814199.896,266.0300136425648,1408.058608058608
1650462814231.986,265.82278481012656,1400.7326007326005
1650462814233.064,265.82278481012656,1391.2087912087911
1650462814233.298,265.71929141522287,1381.6849816849815
1650462814245.718,265.61587857559834,1372.161172161172
1650462814246.829,265.3061224489796,1364.102564102564
1650462814247.782,265.40929418627263,1356.7765567765566
1650462814261.69,265.3061224489796,1350.18315018315
1650462814261.881,265.2030308917816,1345.7875457875457
1650462814290.415,264.99708794408855,1342.1245421245421
1650462814291.447,264.7914645974782,1339.194139194139
1650462814291.589,264.7914645974782,1334.065934065934
1650462814302.9028,264.6887725421757,1330.4029304029302
1650462814304.22,264.2787996127783,1328.2051282051282
1650462814317.84,264.17650474162957,1324.5421245421244
1650462814319.033,263.9721523883195,1323.076923076923
1650462814319.243,264.0742890307603,1320.8791208791208
1650462814351.809,263.768115942029,1322.3443223443223
1650462814352.937,263.768115942029,1323.076923076923
1650462814364.244,263.768115942029,1322.3443223443223
1650462814364.417,263.66621595518643,1322.3443223443223
1650462814365.549,263.25940212150437,1325.2747252747251
1650462814379.128,263.25940212150437,1330.4029304029302
1650462814379.366,263.05646560030834,1336.263736263736
1650462814415.448,262.9551146214602,1343.5897435897434
1650462814416.5872,262.65152972868964,1350.9157509157508
1650462814422.7568,262.5504904789383,1356.7765567765566
1650462814422.932,262.5504904789383,1363.3699633699632
1650462814424.1372,262.4495289367429,1368.4981684981683
1650462814425.3882,262.0464580533692,1375.091575091575
1650462814439.12,261.9458837075418,1380.952380952381
1650462814439.3252,261.8453865336659,1385.3479853479853
1650462814466.98,261.74496644295306,1391.2087912087911
1650462814467.963,261.44416778394947,1394.139194139194
1650462814486.571,261.34405514072375,1394.8717948717947
1650462814486.767,261.244019138756,1393.4065934065934
1650462814487.8699,260.84463978597364,1393.4065934065934
1650462814489.054,260.84463978597364,1390.4761904761904
1650462814502.773,260.6454076761505,1386.080586080586
1650462814502.971,260.545905707196,1379.4871794871794
1650462814527.88,260.545905707196,1371.4285714285713
1650462814529.062,260.04953324442755,1364.102564102564
1650462814544.2332,259.95048562178636,1356.0439560439559
1650462814545.424,259.8515134209024,1345.7875457875457
1650462814545.791,259.65379494007993,1336.263736263736
1650462814555.465,259.35778073342203,1328.937728937729
1650462814581.465,259.2592592592593,1321.6117216117216
1650462814582.738,259.2592592592593,1315.018315018315
1650462814582.8718,259.0624406908332,1305.4945054945053
1650462814604.1328,258.76777251184836,1297.4358974358975
1650462814605.4202,258.5716991854518,1290.8424908424909
1650462814606.461,258.47377390645715,1280.5860805860805
1650462814606.553,258.47377390645715,1270.3296703296703
1650462814615.408,258.0828133862734,1261.5384615384614
1650462814649.086,257.98525798525793,1252.7472527472526
1650462814649.283,257.88777630833175,1245.4212454212454
1650462814650.456,257.5957727873183,1241.7582417582416
1650462814661.701,257.40147086554776,1237.3626373626373
1650462814662.769,257.3044297832233,1234.4322344322343
1650462814662.9119,257.20746184284906,1231.5018315018315
1650462814664.175,257.20746184284906,1230.03663003663
1650462814677.8901,256.8203198494826,1231.5018315018315
1650462814702.771,256.72371638141806,1232.2344322344322
1650462814702.923,256.6271855611957,1232.967032967033
1650462814704.207,256.5307273068972,1231.5018315018315
1650462814726.716,256.2417871222076,1230.7692307692307
1650462814727.714,256.0495216657287,1226.3736263736264
1650462814727.8599,255.95349709356833,1222.7106227106226
1650462814729.2112,255.95349709356833,1219.7802197802198
1650462814742.866,255.57011795543903,1218.3150183150183
1650462814777.7852,255.47445255474452,1218.3150183150183
1650462814778.9868,255.37885874649203,1220.5128205128203
1650462814779.14,255.28333645034596,1221.245421245421
1650462814782.846,254.99719783299082,1224.1758241758241
1650462814784.2058,254.8067948478626,1227.106227106227
1650462814792.84,254.8067948478626,1227.8388278388277
1650462814793.0469,254.61667599328482,1229.3040293040292
1650462814801.613,254.42684063373716,1232.2344322344322
1650462814827.864,254.42684063373716,1235.8974358974358
1650462814828.938,254.23728813559322,1243.956043956044
1650462814829.0962,254.23728813559322,1257.142857142857
1650462814842.967,253.85902919843778,1280.5860805860805
1650462814846.3398,253.76464026770773,1311.3553113553112
1650462814863.7942,253.76464026770773,1350.9157509157508
1650462814864.092,253.48189415041782,1400.0
1650462814864.158,253.38778540931872,1454.9450549450548
1650462814892.7878,253.38778540931872,1513.5531135531135
1650462814893.96,253.2937465206903,1572.8937728937728
1650462814894.112,253.19977740678908,1632.2344322344322
1650462814900.456,252.82459714761993,1685.7142857142856
1650462814909.143,252.82459714761993,1728.937728937729
1650462814917.707,252.82459714761993,1760.4395604395604
1650462814917.792,252.73097574523234,1779.4871794871794
1650462814949.053,252.54394079555965,1785.3479853479853
1650462814950.221,252.45052709450712,1777.2893772893772
1650462814950.34,252.357182473655,1758.2417582417581
1650462814970.499,252.26390685640362,1727.4725274725274
1650462814971.608,252.17070016626639,1691.5750915750914
1650462814974.645,251.9844932619531,1652.7472527472526
1650462814974.938,251.89149289536815,1611.7216117216117
1650462814981.55,251.89149289536815,1570.6959706959706
1650462815006.6472,251.61290322580643,1531.8681318681317
1650462815007.709,251.5201768933112,1495.970695970696
1650462815021.555,251.5201768933112,1465.201465201465
1650462815021.778,251.5201768933112,1438.8278388278388
1650462815023.0159,251.24240750966317,1417.5824175824175
1650462815031.637,251.14995400183992,1399.2673992673992
1650462815072.835,250.96525096525096,1387.5457875457876
1650462815073.075,251.05756851204708,1376.5567765567764
1650462815074.096,250.7808194010656,1371.4285714285713
1650462815075.4048,250.7808194010656,1366.3003663003662
1650462815084.2021,250.7808194010656,1362.6373626373625
1650462815084.34,250.7808194010656,1359.7069597069597
1650462815085.408,250.4127682993946,1359.7069597069597
1650462815098.957,250.5046797577537,1360.4395604395604
1650462815100.433,250.32092426187418,1365.5677655677655
1650462815100.54,250.4127682993946,1370.6959706959706
1650462815136.559,250.22914757103575,1378.7545787545787
1650462815137.773,250.04579593332113,1387.5457875457876
1650462815144.0361,250.13743815283124,1396.3369963369962
1650462815144.254,250.13743815283124,1405.128205128205
1650462815150.775,249.86271279516748,1414.6520146520145
1650462815157.875,249.77127172918574,1424.9084249084249
1650462815158.129,249.77127172918574,1436.6300366300366
1650462815194.206,249.6798975672215,1449.8168498168498
1650462815196.5461,249.4973496618534,1462.2710622710622
1650462815196.6729,249.4973496618534,1471.7948717948716
1650462815221.466,249.4061757719715,1476.1904761904761
1650462815221.62,249.31506849315068,1478.3882783882782
1650462815222.934,249.13305347691184,1479.120879120879
1650462815248.943,249.13305347691184,1476.923076923077
1650462815249.0698,249.04214559386975,1475.4578754578754
1650462815250.6052,249.13305347691184,1471.062271062271
1650462815266.617,248.8605287146764,1464.4688644688645
1650462815267.699,248.95130403064016,1452.7472527472526
1650462815267.8572,248.95130403064016,1441.0256410256409
1650462815269.0698,248.76981957353746,1428.5714285714284
1650462815270.4119,248.67917653488797,1415.3846153846152
1650462815305.46,248.67917653488797,1405.128205128205
1650462815306.459,248.67917653488797,1393.4065934065934
1650462815306.56,248.76981957353746,1381.6849816849815
1650462815325.5752,248.58859952649792,1370.6959706959706
1650462815326.437,248.40764331210192,1360.4395604395604
1650462815327.76,248.4980884762425,1350.18315018315
1650462815327.973,248.58859952649792,1342.1245421245421
1650462815336.578,248.40764331210192,1334.7985347985348
1650462815342.9539,248.40764331210192,1327.4725274725274
1650462815371.4932,248.40764331210192,1318.6813186813185
1650462815394.5488,248.22695035460993,1312.8205128205127
1650462815394.716,248.22695035460993,1310.6227106227104
1650462815394.747,248.22695035460993,1309.1575091575091
1650462815394.77,248.31726396216118,1311.3553113553112
1650462815394.792,248.22695035460993,1313.5531135531135
1650462815399.236,248.13670241774224,1317.9487179487178
1650462815439.069,248.22695035460993,1319.4139194139193
1650462815440.182,248.13670241774224,1320.14652014652
1650462815440.327,248.13670241774224,1317.9487179487178
1650462815441.68,248.0465200799564,1315.7509157509157
1650462815442.7568,248.0465200799564,1315.7509157509157
1650462815451.538,248.13670241774224,1318.6813186813185
1650462815451.693,248.13670241774224,1322.3443223443223
1650462815457.8398,247.9564032697548,1325.2747252747251
1650462815491.724,248.0465200799564,1327.4725274725274
1650462815492.7239,248.0465200799564,1329.6703296703297
1650462815492.938,248.13670241774224,1331.8681318681317
1650462815503.8608,247.8663519157436,1333.3333333333333
1650462815504.159,247.9564032697548,1334.065934065934
1650462815514.075,247.77636594663278,1335.5311355311355
1650462815514.331,248.0465200799564,1336.9963369963368
1650462815545.575,247.9564032697548,1336.263736263736
1650462815546.545,247.9564032697548,1336.9963369963368
1650462815562.8008,248.0465200799564,1336.9963369963368
1650462815563.035,248.13670241774224,1334.065934065934
1650462815564.0781,247.8663519157436,1331.8681318681317
1650462815565.207,247.9564032697548,1327.4725274725274
1650462815579.095,247.9564032697548,1323.076923076923
1650462815579.376,248.13670241774224,1319.4139194139193
1650462815614.1428,247.8663519157436,1317.216117216117
1650462815615.477,247.8663519157436,1315.7509157509157
1650462815623.985,247.9564032697548,1312.8205128205127
1650462815624.082,248.0465200799564,1313.5531135531135
1650462815625.718,247.8663519157436,1312.087912087912
1650462815626.4639,247.9564032697548,1309.89010989011
1650462815626.678,247.9564032697548,1303.2967032967033
1650462815640.6802,247.9564032697548,1298.9010989010987
1650462815667.9832,247.8663519157436,1293.7728937728937
1650462815669.091,247.9564032697548,1290.10989010989
1650462815669.3252,248.13670241774224,1286.4468864468863
1650462815684.396,248.22695035460993,1284.9816849816848
1650462815685.78,247.9564032697548,1284.9816849816848
1650462815688.978,247.9564032697548,1285.7142857142856
1650462815701.552,248.0465200799564,1285.7142857142856
1650462815702.1438,248.0465200799564,1285.7142857142856
1650462815727.9512,248.0465200799564,1284.9816849816848
1650462815729.099,248.22695035460993,1282.051282051282
1650462815742.732,248.13670241774224,1282.7838827838827
1650462815742.912,248.22695035460993,1279.8534798534797
1650462815744.385,248.13670241774224,1277.6556776556777
1650462815750.46,248.22695035460993,1273.9926739926739
1650462815776.572,248.22695035460993,1271.7948717948716
1650462815776.86,248.31726396216118,1271.062271062271
1650462815778.034,248.13670241774224,1271.062271062271
1650462815804.076,248.22695035460993,1269.5970695970695
1650462815805.1792,248.22695035460993,1270.3296703296703
1650462815805.292,248.31726396216118,1271.7948717948716
1650462815806.557,248.22695035460993,1271.062271062271
1650462815820.232,248.31726396216118,1270.3296703296703
1650462815821.424,248.31726396216118,1272.5274725274724
1650462815821.562,248.4980884762425,1275.4578754578754
1650462815850.979,248.31726396216118,1287.179487179487
1650462815851.6282,248.4980884762425,1306.227106227106
1650462815868.043,248.58859952649792,1332.6007326007325
1650462815868.249,248.67917653488797,1367.032967032967
1650462815869.078,248.40764331210192,1413.9194139194137
1650462815875.215,248.58859952649792,1471.7948717948716
1650462815911.773,248.67917653488797,1542.8571428571427
1650462815912.035,248.67917653488797,1616.117216117216
1650462815912.807,248.67917653488797,1688.6446886446886
1650462815919.047,248.67917653488797,1755.311355311355
1650462815920.269,248.76981957353746,1813.9194139194137
1650462815920.404,248.8605287146764,1860.07326007326
1650462815929.529,248.67917653488797,1893.7728937728937
1650462815942.801,248.8605287146764,1907.6923076923076
1650462815975.331,248.76981957353746,1906.9597069597069
1650462815975.6611,248.95130403064016,1890.1098901098899
1650462815976.5762,248.8605287146764,1863.003663003663
1650462815980.533,248.8605287146764,1823.4432234432234
1650462815981.431,248.95130403064016,1775.8241758241757
1650462815981.5781,249.04214559386975,1723.8095238095236
1650462815995.6282,248.95130403064016,1671.0622710622708
1650462815996.443,249.04214559386975,1617.5824175824175
1650462816022.906,249.13305347691184,1566.3003663003662
1650462816023.01,249.13305347691184,1519.4139194139193
1650462816024.074,249.04214559386975,1477.6556776556777
1650462816042.94,249.13305347691184,1441.0256410256409
1650462816044.1848,249.13305347691184,1412.4542124542124
1650462816044.3872,249.31506849315068,1390.4761904761904
1650462816057.9172,249.13305347691184,1375.8241758241757
1650462816059.695,249.2240277524192,1367.7655677655678
1650462816086.937,249.31506849315068,1364.102564102564
1650462816087.114,249.31506849315068,1366.3003663003662
1650462816087.148,249.2240277524192,1372.8937728937728
1650462816105.4238,249.2240277524192,1380.952380952381
1650462816106.4602,249.2240277524192,1389.7435897435896
1650462816106.614,249.4061757719715,1394.8717948717947
1650462816120.5881,249.2240277524192,1400.7326007326005
1650462816121.52,249.31506849315068,1406.5934065934066
1650462816155.3599,249.31506849315068,1417.5824175824175
1650462816155.714,249.4973496618534,1430.03663003663
1650462816156.594,249.31506849315068,1445.4212454212454
1650462816160.532,249.31506849315068,1461.5384615384614
1650462816169.09,249.4061757719715,1477.6556776556777
1650462816169.224,249.31506849315068,1493.040293040293
1650462816178.383,249.31506849315068,1506.9597069597069
1650462816205.362,249.4061757719715,1517.9487179487178
1650462816205.631,249.31506849315068,1523.0769230769229
1650462816206.616,249.31506849315068,1526.7399267399267
1650462816225.448,249.2240277524192,1528.2051282051282
1650462816226.5242,249.31506849315068,1526.7399267399267
1650462816226.755,249.31506849315068,1522.3443223443223
1650462816227.854,249.31506849315068,1513.5531135531135
1650462816241.7651,249.13305347691184,1503.2967032967033
1650462816266.4849,249.2240277524192,1490.10989010989
1650462816267.7952,249.04214559386975,1476.923076923077
1650462816267.899,249.13305347691184,1463.7362637362637
1650462816285.4531,249.04214559386975,1452.7472527472526
1650462816286.6199,249.04214559386975,1437.3626373626373
1650462816291.528,249.04214559386975,1422.7106227106226
1650462816291.798,249.13305347691184,1406.5934065934066
1650462816332.854,248.8605287146764,1394.8717948717947
1650462816334.0261,248.95130403064016,1379.4871794871794
1650462816334.21,248.8605287146764,1364.8351648351647
1650462816340.543,248.76981957353746,1354.5787545787546
1650462816341.573,248.67917653488797,1346.5201465201465
1650462816350.198,248.58859952649792,1339.9267399267399
1650462816350.3162,248.67917653488797,1334.065934065934
1650462816356.653,248.58859952649792,1331.135531135531
1650462816381.5962,248.40764331210192,1326.7399267399267
1650462816382.698,248.4980884762425,1326.007326007326
1650462816382.7988,248.40764331210192,1325.2747252747251
1650462816404.194,248.31726396216118,1326.007326007326
1650462816405.346,248.13670241774224,1326.7399267399267
1650462816406.502,248.13670241774224,1327.4725274725274
1650462816406.6638,248.13670241774224,1328.937728937729
1650462816441.65,247.8663519157436,1330.4029304029302
1650462816442.872,247.8663519157436,1333.3333333333333
1650462816463.967,247.8663519157436,1335.5311355311355
1650462816465.51,247.77636594663278,1336.263736263736
1650462816465.7358,247.77636594663278,1334.7985347985348
1650462816466.602,247.50679963735269,1336.9963369963368
1650462816467.895,247.50679963735269,1336.263736263736
1650462816481.515,247.41707449700925,1339.194139194139
1650462816481.614,247.23781923564573,1342.1245421245421
1650462816506.6409,247.14828897338404,1342.8571428571427
1650462816508.022,247.14828897338404,1338.4615384615383
1650462816524.322,247.05882352941177,1334.065934065934
1650462816524.535,247.05882352941177,1325.2747252747251
1650462816525.77,246.79081540408606,1317.9487179487178
1650462816531.6418,246.7016085306344,1309.89010989011
1650462816559.9429,246.7016085306344,1304.0293040293038
1650462816560.156,246.61246612466127,1297.4358974358975
1650462816561.07,246.43437443581874,1291.5750915750914
1650462816586.586,246.43437443581874,1284.2490842490843
1650462816588.055,246.43437443581874,1276.923076923077
1650462816588.296,246.2565397799026,1273.260073260073
1650462816589.154,246.1677186654644,1269.5970695970695
1650462816594.055,245.9902685168499,1263.7362637362637
1650462816621.5361,245.9902685168499,1258.6080586080586
1650462816621.784,245.90163934426232,1252.014652014652
1650462816622.951,245.72457245724573,1244.6886446886447
1650462816644.145,245.63613460500272,1235.164835164835
1650462816645.395,245.5477603885591,1225.6410256410256
1650462816645.53,245.45944973925555,1216.8498168498168
1650462816646.58,245.28301886792454,1208.7912087912086
1650462816661.145,245.19489850907132,1200.7326007326008
1650462816661.368,245.19489850907132,1194.1391941391942
1650462816689.2122,245.01884760366184,1187.5457875457876
1650462816690.422,244.84304932735427,1184.6153846153845
1650462816701.579,244.75524475524477,1183.8827838827838
1650462816702.717,244.6675031367629,1183.8827838827838
1650462816702.954,244.6675031367629,1187.5457875457876
1650462816708.07,244.3171648469662,1198.5347985347985
1650462816719.22,244.2297369833602,1215.3846153846152
1650462816755.323,244.2297369833602,1246.153846153846
1650462816755.633,243.9678284182306,1287.179487179487
1650462816757.084,243.88065034840096,1339.9267399267399
1650462816765.177,243.70648098553832,1402.9304029304028
1650462816765.296,243.70648098553832,1476.1904761904761
1650462816766.642,243.70648098553832,1553.113553113553
1650462816768.022,243.35888750222858,1630.7692307692307
1650462816781.6091,243.35888750222858,1701.8315018315018
1650462816806.996,243.27214400285158,1765.5677655677655
1650462816807.125,243.09884238646484,1813.186813186813
1650462816809.478,242.9257875066738,1846.8864468864467
1650462816823.973,242.83935242839354,1861.5384615384614
1650462816825.281,242.75297883691982,1862.2710622710622
1650462816825.441,242.75297883691982,1847.6190476190475
1650462816834.199,242.40809802876933,1824.1758241758241
1650462816872.072,242.40809802876933,1789.0109890109889
1650462816872.241,242.23602484472048,1747.985347985348
1650462816872.9082,242.1500798296966,1701.8315018315018
1650462816881.64,241.97837262896647,1654.212454212454
1650462816882.707,241.8926103136629,1604.3956043956043
1650462816884.1418,241.80690876882196,1557.5091575091574
1650462816884.338,241.72126792987424,1516.4835164835163
1650462816897.878,241.46470900406862,1484.2490842490843
1650462816924.106,241.5501681118386,1457.8754578754579
1650462816925.201,241.2086941155681,1439.5604395604394
1650462816925.3198,241.37931034482756,1425.6410256410256
1650462816947.849,241.03831891223732,1420.5128205128203
1650462816949.074,240.9532215357458,1417.5824175824175
1650462816950.2612,241.03831891223732,1416.8498168498168
1650462816950.424,240.9532215357458,1417.5824175824175
1650462816959.118,240.6982895432904,1417.5824175824175
1650462816989.027,240.6982895432904,1416.8498168498168
1650462816989.2969,240.52863436123346,1416.117216117216
1650462816990.479,240.61343204653622,1418.3150183150183
1650462817000.364,240.27459954233407,1423.4432234432234
1650462817001.4739,240.19004047158188,1427.106227106227
1650462817001.7349,240.19004047158188,1433.6996336996335
1650462817015.332,240.19004047158188,1441.7582417582416
1650462817020.459,239.85239852398522,1454.212454212454
1650462817049.0461,239.93671998593777,1465.201465201465
1650462817049.149,239.93671998593777,1476.1904761904761
1650462817050.431,239.85239852398522,1484.9816849816848
1650462817061.582,239.59978936282252,1495.2380952380952
1650462817062.69,239.59978936282252,1502.5641025641025
1650462817076.636,239.59978936282252,1507.6923076923076
1650462817076.773,239.26380368098157,1512.087912087912
1650462817082.829,239.34771173066807,1512.8205128205127
1650462817119.073,239.34771173066807,1509.89010989011
1650462817120.411,239.26380368098157,1505.4945054945053
1650462817120.6008,239.17995444191342,1501.098901098901
1650462817125.457,239.01243214848537,1495.2380952380952
1650462817126.431,239.01243214848537,1485.7142857142856
1650462817140.291,238.9287589707684,1472.5274725274724
1650462817140.5461,238.9287589707684,1457.8754578754579
1650462817167.922,238.67809057527538,1441.7582417582416
1650462817168.955,238.76158824558334,1424.1758241758241
1650462817169.089,238.76158824558334,1408.058608058608
1650462817181.586,238.76158824558334,1394.139194139194
1650462817182.828,238.511270312773,1383.8827838827838
1650462817183.988,238.42794759825327,1372.161172161172
1650462817197.686,238.511270312773,1363.3699633699632
1650462817198.019,238.511270312773,1357.5091575091574
1650462817222.962,238.26147669750392,1353.8461538461538
1650462817224.088,238.34468308014667,1348.7179487179487
1650462817241.625,238.26147669750392,1345.054945054945
1650462817241.949,238.17832838946083,1339.9267399267399
1650462817246.585,238.09523809523807,1337.7289377289376
1650462817260.232,238.01220575414123,1335.5311355311355
1650462817262.784,237.9292313055604,1334.7985347985348
1650462817262.93,238.09523809523807,1334.065934065934
1650462817290.465,237.84631468897018,1334.065934065934
1650462817291.469,237.84631468897018,1333.3333333333333
1650462817291.679,237.9292313055604,1334.065934065934
1650462817305.4258,237.9292313055604,1336.9963369963368
1650462817306.587,237.68065471008182,1339.9267399267399
1650462817312.711,237.68065471008182,1341.3919413919414
1650462817339.086,237.76345584392962,1342.8571428571427
1650462817339.346,237.68065471008182,1345.054945054945
1650462817341.066,237.59791122715404,1347.985347985348
1650462817362.208,237.59791122715404,1350.9157509157508
1650462817363.043,237.59791122715404,1353.8461538461538
1650462817363.199,237.68065471008182,1356.0439560439559
1650462817364.0798,237.43259697338667,1356.7765567765566
1650462817378.5852,237.43259697338667,1353.8461538461538
1650462817378.747,237.51522533495736,1352.3809523809523
1650462817408.041,237.43259697338667,1350.18315018315
1650462817409.143,237.35002608242044,1350.18315018315
1650462817422.978,237.35002608242044,1348.7179487179487
1650462817424.381,237.35002608242044,1348.7179487179487
1650462817424.572,237.43259697338667,1347.985347985348
1650462817425.4192,237.26751260212063,1350.18315018315
1650462817439.089,237.26751260212063,1354.5787545787546
1650462817439.405,237.35002608242044,1355.3113553113553
1650462817465.435,237.43259697338667,1353.8461538461538
1650462817466.612,237.26751260212063,1350.18315018315
1650462817489.107,237.26751260212063,1344.3223443223442
1650462817489.396,237.35002608242044,1338.4615384615383
1650462817490.318,237.35002608242044,1332.6007326007325
1650462817491.641,237.26751260212063,1324.5421245421244
1650462817517.8262,237.35002608242044,1314.2857142857142
1650462817518.934,237.26751260212063,1306.9597069597069
1650462817519.092,237.51522533495736,1299.6336996336995
1650462817544.094,237.35002608242044,1291.5750915750914
1650462817545.53,237.43259697338667,1285.7142857142856
1650462817547.719,237.51522533495736,1282.7838827838827
1650462817548.047,237.59791122715404,1278.3882783882782
1650462817549.0378,237.43259697338667,1276.1904761904761
1650462817562.863,237.59791122715404,1273.9926739926739
1650462817562.989,237.68065471008182,1273.260073260073
1650462817597.93,237.68065471008182,1271.7948717948716
1650462817599.1,237.59791122715404,1271.7948717948716
1650462817601.647,237.68065471008182,1271.7948717948716
1650462817602.673,237.76345584392962,1273.260073260073
1650462817602.803,237.84631468897018,1273.9926739926739
1650462817619.497,237.68065471008182,1274.7252747252746
1650462817651.83,237.84631468897018,1273.9926739926739
1650462817669.04,237.68065471008182,1273.9926739926739
1650462817669.157,237.9292313055604,1273.260073260073
1650462817670.3,237.84631468897018,1280.5860805860805
1650462817671.539,237.9292313055604,1295.970695970696
1650462817672.731,237.84631468897018,1326.007326007326
1650462817672.841,238.09523809523807,1368.4981684981683
1650462817681.655,237.9292313055604,1426.3736263736262
1650462817706.5908,238.01220575414123,1495.2380952380952
1650462817706.9111,238.09523809523807,1573.6263736263736
1650462817707.8691,238.17832838946083,1653.4798534798533
1650462817718.054,238.09523809523807,1732.6007326007325
1650462817738.963,238.17832838946083,1805.128205128205
1650462817739.1091,238.26147669750392,1871.0622710622708
1650462817740.331,238.42794759825327,1923.0769230769229
1650462817775.309,238.34468308014667,1959.7069597069597
1650462817776.461,238.67809057527538,1978.7545787545787
1650462817776.559,239.01243214848537,1977.2893772893772
1650462817782.872,239.26380368098157,1960.4395604395604
1650462817784.17,239.26380368098157,1930.4029304029302
1650462817785.2622,239.34771173066807,1890.1098901098899
1650462817785.448,239.4316786528679,1845.4212454212452
1650462817794.2358,239.4316786528679,1797.8021978021977
1650462817821.6929,239.34771173066807,1747.2527472527472
1650462817822.7651,239.4316786528679,1696.7032967032967
1650462817849.106,239.51570450956308,1647.6190476190475
1650462817849.4639,239.59978936282252,1601.4652014652013
1650462817850.407,239.4316786528679,1562.6373626373625
1650462817851.691,239.59978936282252,1529.6703296703295
1650462817852.768,239.68393327480246,1504.7619047619046
1650462817853.005,239.85239852398522,1487.179487179487
1650462817877.881,239.68393327480246,1476.1904761904761
1650462817878.9438,239.76813630774635,1468.131868131868
1650462817900.553,239.93671998593777,1460.07326007326
1650462817900.837,240.0211007561104,1454.9450549450548
1650462817901.53,239.68393327480246,1451.2820512820513
1650462817903.055,239.51570450956308,1446.153846153846
1650462817903.289,239.51570450956308,1442.4908424908424
1650462817916.754,239.4316786528679,1440.2930402930401
1650462817942.955,239.26380368098157,1439.5604395604394
1650462817944.041,239.34771173066807,1438.095238095238
1650462817944.335,239.34771173066807,1439.5604395604394
1650462817965.916,239.34771173066807,1441.7582417582416
1650462817966.517,239.26380368098157,1444.6886446886447
1650462817967.7551,239.26380368098157,1448.3516483516482
1650462817982.829,239.26380368098157,1455.6776556776556
1650462817983.061,239.17995444191342,1465.201465201465
1650462818008.666,239.17995444191342,1473.9926739926739
1650462818009.027,239.26380368098157,1483.5164835164835
1650462818028.853,239.34771173066807,1493.040293040293
1650462818029.25,239.4316786528679,1501.8315018315018
1650462818029.299,239.26380368098157,1511.3553113553112
1650462818030.323,239.34771173066807,1513.5531135531135
1650462818056.567,239.34771173066807,1513.5531135531135
1650462818056.763,239.26380368098157,1508.4249084249084
1650462818057.844,239.34771173066807,1497.4358974358972
1650462818084.0708,239.4316786528679,1484.2490842490843
1650462818085.34,239.51570450956308,1473.260073260073
1650462818085.508,239.59978936282252,1463.003663003663
1650462818086.66,239.4316786528679,1453.4798534798533
1650462818100.312,239.51570450956308,1441.0256410256409
1650462818132.008,239.4316786528679,1427.8388278388277
1650462818132.245,239.59978936282252,1413.1868131868132
1650462818133.436,239.51570450956308,1398.5347985347985
1650462818146.512,239.51570450956308,1383.8827838827838
1650462818146.667,239.59978936282252,1369.9633699633698
1650462818147.844,239.76813630774635,1359.7069597069597
1650462818149.073,239.68393327480246,1350.9157509157508
1650462818157.9211,239.68393327480246,1343.5897435897434
1650462818188.9739,239.68393327480246,1339.194139194139
1650462818189.12,239.85239852398522,1334.065934065934
1650462818190.551,239.76813630774635,1331.8681318681317
1650462818207.746,239.85239852398522,1328.2051282051282
1650462818209.033,239.85239852398522,1325.2747252747251
1650462818209.1611,240.0211007561104,1325.2747252747251
1650462818210.277,239.93671998593777,1330.4029304029302
1650462818236.564,239.93671998593777,1331.135531135531
1650462818236.813,239.93671998593777,1334.065934065934
1650462818239.238,240.0211007561104,1334.7985347985348
1650462818262.849,240.0211007561104,1336.9963369963368
1650462818263.9812,240.1055408970976,1336.9963369963368
1650462818265.51,240.19004047158188,1338.4615384615383
1650462818265.689,240.27459954233407,1338.4615384615383
1650462818271.672,240.27459954233407,1339.194139194139
1650462818307.759,240.3592181722134,1339.9267399267399
1650462818307.924,240.44389642416766,1341.3919413919414
1650462818309.391,240.52863436123346,1340.6593406593406
1650462818322.825,240.52863436123346,1341.3919413919414
1650462818323.965,240.61343204653622,1339.9267399267399
1650462818324.1191,240.6982895432904,1339.194139194139
1650462818325.388,240.86818422445737,1337.7289377289376
1650462818334.2031,240.78320691479976,1336.263736263736
1650462818360.341,240.86818422445737,1333.3333333333333
1650462818360.573,241.03831891223732,1330.4029304029302
1650462818361.655,241.12347641759405,1329.6703296703297
1650462818384.178,241.12347641759405,1328.2051282051282
1650462818385.304,241.2086941155681,1325.2747252747251
1650462818386.657,241.29397207000176,1323.076923076923
1650462818386.968,241.46470900406862,1322.3443223443223
1650462818400.436,241.29397207000176,1323.076923076923
1650462818439.028,241.46470900406862,1325.2747252747251
1650462818439.199,241.63568773234198,1328.2051282051282
1650462818444.0752,241.63568773234198,1328.2051282051282
1650462818445.323,241.63568773234198,1326.007326007326
1650462818446.454,241.80690876882196,1323.8095238095236
1650462818447.863,241.8926103136629,1320.14652014652
1650462818447.9958,242.0641957793935,1314.2857142857142
1650462818461.8372,241.97837262896647,1308.4249084249084
1650462818496.5662,242.0641957793935,1302.5641025641025
1650462818496.9448,242.23602484472048,1298.9010989010987
1650462818497.934,242.40809802876933,1298.168498168498
1650462818501.823,242.3220308894017,1298.168498168498
1650462818507.973,242.4942263279446,1298.168498168498
1650462818508.167,242.66666666666669,1296.7032967032967
1650462818521.699,242.66666666666669,1295.2380952380952
1650462818546.67,242.75297883691982,1291.5750915750914
1650462818548.07,242.83935242839354,1288.6446886446886
1650462818548.2532,243.01228413743993,1284.9816849816848
1650462818565.423,243.09884238646484,1281.3186813186812
1650462818566.59,243.01228413743993,1279.120879120879
1650462818567.655,243.1854623196152,1275.4578754578754
1650462818576.658,243.27214400285158,1273.9926739926739
1650462818576.875,243.5325602140946,1274.7252747252746
1650462818582.9312,243.44569288389516,1279.8534798534797
1650462818611.669,243.5325602140946,1282.7838827838827
1650462818612.77,243.61948955916475,1288.6446886446886
1650462818612.8918,243.79353455974282,1293.7728937728937
1650462818622.873,243.70648098553832,1300.3663003663003
1650462818623.98,243.88065034840096,1302.5641025641025
1650462818637.807,243.88065034840096,1305.4945054945053
1650462818637.936,243.88065034840096,1308.4249084249084
1650462818667.9238,244.05506883604508,1307.6923076923076
1650462818669.366,244.14237166875338,1304.7619047619046
1650462818681.5579,244.2297369833602,1299.6336996336995
1650462818681.925,244.40465532676814,1295.970695970696
1650462818682.883,244.3171648469662,1292.3076923076922
1650462818684.081,244.4922084900591,1288.6446886446886
1650462818697.832,244.4922084900591,1283.5164835164835
1650462818698.0159,244.6675031367629,1281.3186813186812
1650462818725.435,244.57982440422865,1282.7838827838827
1650462818726.5142,244.75524475524477,1289.3772893772893
1650462818745.228,244.84304932735427,1304.0293040293038
1650462818745.385,244.9309169208685,1329.6703296703297
1650462818746.542,244.9309169208685,1366.3003663003662
1650462818747.7568,245.10684144370626,1413.9194139194137
1650462818747.9702,245.10684144370626,1474.7252747252746
1650462818761.57,245.19489850907132,1542.8571428571427
1650462818786.643,245.19489850907132,1616.117216117216
1650462818787.835,245.3712025885314,1691.5750915750914
1650462818788.073,245.45944973925555,1761.9047619047617
1650462818800.332,245.63613460500272,1823.4432234432234
1650462818801.534,245.5477603885591,1875.4578754578754
1650462818815.348,245.72457245724573,1912.8205128205127
1650462818815.65,245.81307401404646,1935.5311355311353
1650462818841.595,245.90163934426232,1940.6593406593406
1650462818842.808,245.81307401404646,1929.6703296703295
1650462818860.3809,245.9902685168499,1901.8315018315018
1650462818861.503,246.07896160086534,1863.003663003663
1650462818861.654,245.9902685168499,1816.117216117216
1650462818862.846,246.07896160086534,1762.6373626373625
1650462818876.556,246.2565397799026,1702.5641025641025
1650462818876.8462,246.34542501353548,1641.7582417582416
1650462818912.919,246.43437443581874,1583.150183150183
1650462818914.084,246.34542501353548,1532.6007326007325
1650462818920.261,246.5233881163085,1490.8424908424906
1650462818920.374,246.61246612466127,1458.6080586080584
1650462818921.575,246.61246612466127,1433.6996336996335
1650462818955.413,246.7016085306344,1416.117216117216
1650462818956.4841,246.79081540408606,1402.197802197802
1650462818956.6592,246.9694228333635,1394.8717948717947
1650462818982.851,247.05882352941177,1391.2087912087911
1650462818984.0542,246.9694228333635,1389.7435897435896
1650462818985.3079,247.14828897338404,1388.278388278388
1650462818986.448,247.14828897338404,1390.4761904761904
1650462818986.5552,247.32741438666426,1394.8717948717947
1650462818987.8271,247.14828897338404,1401.4652014652013
1650462819001.497,247.32741438666426,1408.058608058608
1650462819001.655,247.41707449700925,1414.6520146520145
1650462819037.823,247.6864452912357,1422.7106227106226
1650462819039.1082,247.59658987846908,1432.9670329670328
1650462819040.205,247.6864452912357,1442.4908424908424
1650462819040.421,247.77636594663278,1450.5494505494505
1650462819041.755,247.8663519157436,1457.142857142857
1650462819055.4421,247.77636594663278,1465.201465201465
1650462819061.553,247.8663519157436,1472.5274725274724
1650462819061.781,248.0465200799564,1476.923076923077
1650462819090.373,247.9564032697548,1481.3186813186812
1650462819091.675,248.13670241774224,1483.5164835164835
1650462819104.135,248.22695035460993,1484.2490842490843
1650462819105.177,248.31726396216118,1482.7838827838827
1650462819105.308,248.40764331210192,1475.4578754578754
1650462819114.1738,248.31726396216118,1469.5970695970695
1650462819152.77,248.4980884762425,1460.8058608058607
1650462819152.986,248.4980884762425,1451.2820512820513
1650462819154.1072,248.76981957353746,1440.2930402930401
1650462819162.8252,248.58859952649792,1430.03663003663
1650462819164.0579,248.76981957353746,1417.5824175824175
1650462819165.1968,248.8605287146764,1405.128205128205
1650462819165.363,248.8605287146764,1391.2087912087911
1650462819179.1711,248.76981957353746,1378.021978021978
1650462819204.0469,248.95130403064016,1365.5677655677655
1650462819225.1912,249.04214559386975,1354.5787545787546
1650462819225.312,249.2240277524192,1343.5897435897434
1650462819226.547,249.13305347691184,1332.6007326007325
1650462819227.7988,249.31506849315068,1321.6117216117216
1650462819228.923,249.31506849315068,1314.2857142857142
1650462819229.0261,249.4973496618534,1307.6923076923076
1650462819242.9148,249.31506849315068,1306.227106227106
1650462819268.971,249.4973496618534,1304.0293040293038
1650462819269.102,249.58859023587493,1304.0293040293038
1650462819270.3071,249.77127172918574,1303.2967032967033
1650462819287.83,249.58859023587493,1306.9597069597069
1650462819289.0452,249.77127172918574,1310.6227106227104
1650462819290.176,249.77127172918574,1314.2857142857142
1650462819290.2961,249.95422083867425,1315.7509157509157
1650462819321.6492,249.86271279516748,1317.216117216117
1650462819322.673,249.95422083867425,1317.9487179487178
1650462819322.761,250.04579593332113,1317.9487179487178
1650462819344.438,250.13743815283124,1317.9487179487178
1650462819345.315,249.95422083867425,1317.9487179487178
1650462819353.957,250.13743815283124,1317.9487179487178
1650462819354.0781,250.22914757103575,1317.216117216117
1650462819362.978,250.32092426187418,1319.4139194139193
1650462819399.041,250.32092426187418,1321.6117216117216
1650462819400.2532,250.4127682993946,1323.8095238095236
1650462819400.461,250.5046797577537,1325.2747252747251
1650462819401.5552,250.59665871121717,1324.5421245421244
1650462819402.803,250.5046797577537,1323.8095238095236
1650462819411.59,250.59665871121717,1322.3443223443223
1650462819416.48,250.68870523415978,1319.4139194139193
1650462819416.631,250.7808194010656,1315.018315018315
