Timestamp,GSR,PPG
1650545840797.3298,225.81481481481478,0.0
1650545840810.878,225.81481481481478,0.0
1650545840817.486,225.81481481481478,0.0
1650545840849.4438,225.81481481481478,0.0
1650545840849.655,225.81481481481478,0.0
1650545840850.893,225.81481481481478,0.0
1650545840866.025,225.81481481481478,0.0
1650545840867.041,225.81481481481478,0.0
1650545840867.2322,285.3277494537509,0.0
1650545840868.3691,285.3277494537509,0.0
1650545840901.0469,285.3277494537509,0.0
1650545840902.2131,285.3277494537509,0.0
1650545840922.101,285.3277494537509,0.0
1650545840922.292,285.3277494537509,0.0
1650545840923.442,285.3277494537509,0.0
1650545840932.26,285.3277494537509,0.0
1650545840932.55,285.3277494537509,0.0
1650545840937.288,285.3277494537509,0.0
1650545840963.554,285.3277494537509,0.0
1650545840964.7231,286.8249632275688,0.0
1650545840964.8992,286.8249632275688,0.0
1650545840983.754,286.94555392053815,0.0
1650545840984.874,287.06624605678235,0.0
1650545840986.112,286.94555392053815,0.0
1650545840986.36,286.94555392053815,0.0
1650545840999.887,286.7044738500315,0.0
1650545841001.117,287.06624605678235,0.0
1650545841028.832,287.06624605678235,0.0
1650545841030.04,287.06624605678235,0.0
1650545841030.263,287.1870397643593,0.0
1650545841052.508,287.1870397643593,0.0
1650545841053.608,286.94555392053815,0.0
1650545841053.7751,287.1870397643593,0.0
1650545841054.9778,287.1870397643593,0.0
1650545841097.743,287.30793517154285,0.0
1650545841098.805,287.06624605678235,0.0
1650545841098.9832,287.1870397643593,0.0
1650545841100.259,287.30793517154285,0.0
1650545841101.391,287.30793517154285,0.0
1650545841115.0151,287.1870397643593,0.0
1650545841115.199,287.30793517154285,0.0
1650545841116.372,287.42893240682247,0.0
1650545841141.49,287.1870397643593,0.0
1650545841142.728,287.1870397643593,0.0
1650545841168.884,287.42893240682247,0.0
1650545841169.077,287.42893240682247,0.0
1650545841170.2659,287.42893240682247,0.0
1650545841171.363,287.30793517154285,0.0
1650545841171.5269,287.42893240682247,0.0
1650545841198.0022,287.30793517154285,0.0
1650545841199.127,287.5500315989046,0.0
1650545841224.103,287.42893240682247,0.0
1650545841225.24,287.5500315989046,0.0
1650545841225.3909,287.5500315989046,0.0
1650545841226.6082,287.67123287671234,0.0
1650545841235.429,287.42893240682247,0.0
1650545841235.635,287.42893240682247,0.0
1650545841260.437,287.5500315989046,0.0
1650545841261.665,287.5500315989046,0.0
1650545841288.015,287.42893240682247,0.0
1650545841289.0989,287.42893240682247,0.0
1650545841289.194,287.5500315989046,0.0
1650545841290.533,287.5500315989046,0.0
1650545841299.1719,287.42893240682247,0.0
1650545841299.352,287.42893240682247,0.0
1650545841324.347,287.5500315989046,0.0
1650545841325.56,287.5500315989046,0.0
1650545841349.27,287.42893240682247,0.0
1650545841349.514,287.5500315989046,0.0
1650545841350.675,287.42893240682247,0.0
1650545841376.943,287.5500315989046,0.0
1650545841378.0452,287.30793517154285,0.0
1650545841378.203,287.42893240682247,0.0
1650545841403.46,287.5500315989046,0.0
1650545841404.649,287.5500315989046,0.0
1650545841405.596,287.5500315989046,0.0
1650545841405.709,287.67123287671234,0.0
1650545841407.034,287.5500315989046,0.0
1650545841416.091,287.67123287671234,0.0
1650545841444.45,287.5500315989046,0.0
1650545841444.665,287.67123287671234,0.0
1650545841445.882,287.67123287671234,0.0
1650545841464.73,287.5500315989046,0.0
1650545841465.944,287.5500315989046,0.0
1650545841466.2312,287.42893240682247,0.0
1650545841467.303,287.5500315989046,0.0
1650545841475.914,287.42893240682247,0.0
1650545841500.915,287.42893240682247,0.0
1650545841501.081,287.42893240682247,0.0
1650545841502.356,287.5500315989046,0.0
1650545841527.25,287.42893240682247,0.0
1650545841528.355,287.30793517154285,0.0
1650545841528.491,287.42893240682247,0.0
1650545841534.73,287.30793517154285,0.0
1650545841535.979,287.30793517154285,0.0
1650545841562.2239,287.06624605678235,0.0
1650545841562.422,287.30793517154285,0.0
1650545841563.597,287.42893240682247,0.0
1650545841589.628,287.30793517154285,0.0
1650545841589.893,287.1870397643593,0.0
1650545841592.278,287.1870397643593,0.0
1650545841592.4238,287.30793517154285,0.0
1650545841601.226,287.1870397643593,0.0
1650545841626.093,287.06624605678235,0.0
1650545841626.272,287.06624605678235,0.0
1650545841646.565,287.1870397643593,0.0
1650545841647.527,287.1870397643593,0.0
1650545841647.811,287.06624605678235,0.0
1650545841648.063,286.94555392053815,0.0
1650545841653.804,287.06624605678235,0.0
1650545841678.875,287.06624605678235,0.0
1650545841680.033,286.94555392053815,0.0
1650545841680.175,286.94555392053815,0.0
1650545841705.148,286.94555392053815,0.0
1650545841706.4,286.94555392053815,0.0
1650545841707.608,286.7044738500315,0.0
1650545841717.731,286.8249632275688,0.0
1650545841717.942,286.8249632275688,0.0
1650545841745.22,286.8249632275688,0.0
1650545841746.342,286.7044738500315,0.0
1650545841746.4858,286.7044738500315,0.0
1650545841769.0378,286.7044738500315,0.0
1650545841770.266,286.7044738500315,0.0
1650545841771.541,286.5840856602981,0.0
1650545841780.155,286.5840856602981,0.0
1650545841780.3098,286.5840856602981,0.0
1650545841810.366,286.5840856602981,0.0
1650545841811.4631,286.4637985309549,0.0
1650545841811.5999,286.5840856602981,0.0
1650545841829.167,286.4637985309549,0.0
1650545841830.505,286.3436123348018,0.0
1650545841832.762,286.3436123348018,0.0
1650545841832.925,286.3436123348018,0.0
1650545841858.0261,286.3436123348018,0.0
1650545841859.233,286.3436123348018,0.0
1650545841884.146,286.22352694485215,0.0
1650545841884.358,286.22352694485215,0.0
1650545841885.556,286.22352694485215,0.0
1650545841891.926,286.10354223433245,0.0
1650545841893.048,286.10354223433245,0.0
1650545841920.495,285.9836580766813,0.0
1650545841920.793,285.9836580766813,0.0
1650545841921.883,286.10354223433245,0.0
1650545841941.792,285.9836580766813,0.0
1650545841941.973,285.9836580766813,0.0
1650545841943.1218,285.9836580766813,0.0
1650545841944.3691,285.86387434554973,0.0
1650545841958.2979,285.7441909148001,0.7326007326007326
1650545841983.119,285.86387434554973,0.0
1650545841983.312,285.86387434554973,0.0
1650545841984.449,285.7441909148001,0.0
1650545842004.4192,285.7441909148001,0.0
1650545842004.601,285.7441909148001,0.0
1650545842005.77,285.7441909148001,0.0
1650545842007.004,285.7441909148001,0.0
1650545842023.32,285.62460765850597,0.0
1650545842048.2559,285.62460765850597,0.0
1650545842048.442,285.62460765850597,0.0
1650545842049.574,285.62460765850597,0.0
1650545842068.421,285.3857411666318,0.0
1650545842068.6829,285.62460765850597,0.0
1650545842069.7588,285.3857411666318,0.0
1650545842071.12,285.5051244509517,0.0
1650545842102.265,285.3857411666318,0.0
1650545842102.422,285.3857411666318,0.0
1650545842103.604,285.26645768025077,0.0
1650545842127.2622,285.26645768025077,0.0
1650545842128.372,285.1472738667224,0.0
1650545842128.5342,285.26645768025077,0.0
1650545842129.7468,285.26645768025077,0.0
1650545842131.023,285.1472738667224,0.0
1650545842166.1602,285.1472738667224,0.0
1650545842167.348,285.1472738667224,0.0
1650545842167.585,285.02818960116934,0.0
1650545842187.371,285.1472738667224,0.0
1650545842188.493,284.909204758923,0.0
1650545842188.658,285.02818960116934,0.0
1650545842189.858,285.02818960116934,0.0
1650545842197.539,285.02818960116934,0.0
1650545842224.955,284.909204758923,0.0
1650545842226.069,285.02818960116934,0.0
1650545842226.226,284.909204758923,0.0
1650545842246.25,284.909204758923,0.0
1650545842247.4949,284.79031921552263,0.0
1650545842247.7,284.909204758923,0.0
1650545842248.765,284.79031921552263,0.0
1650545842262.794,284.79031921552263,0.0
1650545842288.712,284.6715328467153,0.0
1650545842288.8948,284.6715328467153,0.0
1650545842290.046,284.6715328467153,0.0
1650545842313.8782,284.6715328467153,0.0
1650545842314.971,284.5528455284553,0.0
1650545842315.093,284.6715328467153,0.0
1650545842316.323,284.5528455284553,0.0
1650545842317.586,284.5528455284553,0.0
1650545842346.3171,284.4342571369035,0.0
1650545842346.508,284.4342571369035,0.0
1650545842347.6812,284.5528455284553,0.0
1650545842370.2542,284.4342571369035,0.0
1650545842371.439,284.3157675484274,0.0
1650545842371.736,284.3157675484274,0.0
1650545842372.74,284.4342571369035,0.0
1650545842399.046,284.3157675484274,0.0
1650545842400.114,284.0790842872008,0.0
1650545842400.218,284.3157675484274,0.0
1650545842425.315,284.3157675484274,0.0
1650545842426.5562,284.0790842872008,0.0
1650545842437.8108,284.0790842872008,0.0
1650545842438.26,284.19737663960024,0.0
1650545842439.099,284.19737663960024,0.0
1650545842465.424,284.0790842872008,0.0
1650545842466.682,283.96089036821303,0.0
1650545842491.647,284.0790842872008,0.0
1650545842491.868,284.0790842872008,0.0
1650545842492.934,284.0790842872008,0.0
1650545842497.813,283.8427947598253,0.0
1650545842497.961,283.8427947598253,0.0
1650545842504.236,283.96089036821303,0.0
1650545842540.568,283.8427947598253,0.0
1650545842541.665,283.8427947598253,0.0
1650545842541.833,283.7247973394305,0.0
1650545842555.5662,283.8427947598253,0.0
1650545842556.783,283.8427947598253,0.0
1650545842558.0562,283.606897984625,0.0
1650545842558.243,283.606897984625,0.0
1650545842559.294,283.8427947598253,0.0
1650545842593.184,283.606897984625,0.0
1650545842594.363,283.606897984625,0.0
1650545842615.671,283.606897984625,0.0
1650545842615.916,283.606897984625,0.0
1650545842616.994,283.606897984625,0.0
1650545842618.1309,283.4890965732087,0.0
1650545842618.314,283.606897984625,0.0
1650545842624.605,283.4890965732087,0.0
1650545842650.761,283.606897984625,0.0
1650545842651.885,283.37139298318453,0.0
1650545842652.032,283.4890965732087,0.7326007326007326
1650545842674.629,283.4890965732087,0.0
1650545842675.859,283.2537870927578,0.0
1650545842676.903,283.2537870927578,0.0
1650545842676.9878,283.37139298318453,0.0
1650545842703.356,283.2537870927578,0.0
1650545842704.572,283.37139298318453,0.0
1650545842730.212,283.2537870927578,0.0
1650545842730.405,283.37139298318453,0.0
1650545842730.929,283.2537870927578,0.0
1650545842735.9468,283.37139298318453,0.0
1650545842742.038,283.2537870927578,0.0
1650545842742.1821,283.13627878033606,0.0
1650545842769.9448,283.2537870927578,0.0
1650545842771.035,283.2537870927578,0.0
1650545842784.91,283.0188679245283,0.0
1650545842786.0251,283.2537870927578,0.0
1650545842786.326,283.2537870927578,0.0
1650545842787.3179,283.13627878033606,0.0
1650545842800.927,283.0188679245283,0.0
1650545842801.066,283.0188679245283,0.0
1650545842826.2588,283.13627878033606,0.0
1650545842827.496,283.13627878033606,0.0
1650545842852.4001,282.9015544041451,0.0
1650545842853.504,283.0188679245283,0.0
1650545842853.648,283.13627878033606,0.0
1650545842854.924,283.13627878033606,0.0
1650545842863.559,282.9015544041451,0.0
1650545842863.786,283.0188679245283,0.0
1650545842892.488,283.0188679245283,0.0
1650545842893.6812,283.0188679245283,0.0
1650545842913.836,282.7843380981976,0.0
1650545842914.9612,282.9015544041451,0.0
1650545842915.167,282.7843380981976,0.0
1650545842916.326,282.9015544041451,0.0
1650545842954.982,282.7843380981976,0.0
1650545842955.172,282.7843380981976,0.0
1650545842956.298,282.7843380981976,0.0
1650545842967.797,282.7843380981976,0.0
1650545842968.986,282.66721888589774,0.0
1650545842969.157,282.7843380981976,0.0
1650545842970.238,282.66721888589774,0.0
1650545842980.637,282.7843380981976,0.0
1650545843006.344,282.66721888589774,0.0
1650545843006.5042,282.66721888589774,0.0
1650545843007.6758,282.66721888589774,0.0
1650545843031.5881,282.66721888589774,0.0
1650545843032.816,282.550196646657,0.0
1650545843033.939,282.66721888589774,0.0
1650545843034.073,282.66721888589774,0.0
1650545843042.764,282.66721888589774,0.0
1650545843076.8098,282.550196646657,0.0
1650545843077.013,282.550196646657,0.0
1650545843078.1082,282.550196646657,0.0
1650545843086.614,282.550196646657,0.0
1650545843087.813,282.43327126008694,0.0
1650545843088.938,282.43327126008694,0.0
1650545843089.076,282.43327126008694,0.0
1650545843102.867,282.31644260599796,0.0
1650545843127.806,282.43327126008694,0.0
1650545843128.013,282.43327126008694,0.0
1650545843129.117,282.43327126008694,0.0
1650545843151.818,282.43327126008694,0.0
1650545843153.042,282.1997105643994,0.0
1650545843154.182,282.43327126008694,0.0
1650545843154.331,282.43327126008694,0.0
1650545843182.987,282.0830750154991,0.0
1650545843184.116,282.31644260599796,0.0
1650545843184.289,282.43327126008694,0.0
1650545843208.112,282.31644260599796,0.0
1650545843209.301,282.1997105643994,0.0
1650545843210.5378,282.31644260599796,0.0
1650545843219.209,282.31644260599796,0.0
1650545843219.399,282.31644260599796,0.0
1650545843244.3682,282.31644260599796,0.0
1650545843245.5598,282.1997105643994,0.0
1650545843245.76,282.31644260599796,0.0
1650545843270.65,282.31644260599796,0.0
1650545843271.885,282.0830750154991,0.0
1650545843274.471,282.1997105643994,0.0
1650545843283.252,282.1997105643994,0.0
1650545843283.487,282.1997105643994,0.0
1650545843310.7368,282.1997105643994,0.0
1650545843311.959,282.0830750154991,0.0
1650545843312.157,282.0830750154991,0.0
1650545843325.654,282.1997105643994,0.0
1650545843325.843,282.1997105643994,0.0
1650545843334.402,282.0830750154991,0.0
1650545843334.563,282.1997105643994,0.0
1650545843372.0789,282.0830750154991,0.0
1650545843373.406,282.1997105643994,0.0
1650545843393.271,282.0830750154991,0.0
1650545843393.5671,282.1997105643994,0.0
1650545843394.738,282.0830750154991,0.0
1650545843395.9092,282.0830750154991,0.0
1650545843397.127,281.96653583970254,0.0
1650545843425.8152,282.0830750154991,0.0
1650545843425.973,281.96653583970254,0.0
1650545843427.168,282.0830750154991,0.0
1650545843448.3398,281.96653583970254,0.0
1650545843448.522,282.0830750154991,0.0
1650545843449.696,281.96653583970254,0.0
1650545843450.936,282.0830750154991,0.0
1650545843459.73,281.85009291761304,0.0
1650545843459.965,281.96653583970254,0.0
1650545843488.505,281.96653583970254,0.0
1650545843489.791,281.96653583970254,0.0
1650545843505.954,281.85009291761304,0.0
1650545843506.1418,281.96653583970254,0.0
1650545843507.332,281.85009291761304,0.0
1650545843508.5508,281.96653583970254,0.0
1650545843522.367,281.73374613003097,0.0
1650545843552.296,281.85009291761304,0.0
1650545843552.5242,282.0830750154991,0.0
1650545843553.736,281.96653583970254,0.0
1650545843569.803,281.85009291761304,0.0
1650545843570.01,281.96653583970254,0.0
1650545843571.138,281.96653583970254,0.0
1650545843572.406,281.85009291761304,0.0
1650545843586.196,281.85009291761304,0.0
1650545843614.897,281.85009291761304,0.0
1650545843615.081,281.85009291761304,0.0
1650545843616.2888,281.85009291761304,0.0
1650545843631.248,281.85009291761304,0.0
1650545843631.468,281.73374613003097,0.0
1650545843632.544,281.85009291761304,0.0
1650545843641.283,281.85009291761304,0.0
1650545843666.218,281.73374613003097,0.0
1650545843666.418,281.85009291761304,0.0
1650545843667.573,281.85009291761304,0.0
1650545843691.4648,281.85009291761304,0.0
1650545843692.504,281.85009291761304,0.0
1650545843692.669,281.96653583970254,0.0
1650545843693.895,281.85009291761304,0.0
1650545843695.118,281.85009291761304,0.0
1650545843728.968,281.73374613003097,0.0
1650545843730.303,281.73374613003097,0.0
1650545843730.515,281.85009291761304,0.0
1650545843754.136,281.85009291761304,0.0
1650545843755.316,281.73374613003097,0.0
1650545843755.5798,281.85009291761304,0.0
1650545843756.54,281.73374613003097,13.919413919413918
1650545843757.762,281.73374613003097,154.57875457875457
1650545843784.104,281.6174953579534,348.7179487179487
1650545843785.1838,281.6174953579534,556.043956043956
1650545843785.354,281.73374613003097,754.5787545787546
1650545843812.819,281.73374613003097,932.6007326007325
1650545843813.909,281.6174953579534,1082.7838827838827
1650545843814.001,281.73374613003097,1205.128205128205
1650545843816.565,281.6174953579534,1300.3663003663003
1650545843825.353,281.73374613003097,1371.4285714285713
1650545843851.5488,281.50134048257377,1420.5128205128203
1650545843851.741,281.6174953579534,1452.014652014652
1650545843852.875,281.6174953579534,1465.9340659340658
1650545843873.0,281.6174953579534,1469.5970695970695
1650545843874.1528,281.6174953579534,1464.4688644688645
1650545843874.5078,281.73374613003097,1454.212454212454
1650545843875.447,281.73374613003097,1441.7582417582416
1650545843901.8408,281.73374613003097,1427.8388278388277
1650545843903.087,281.6174953579534,1412.4542124542124
1650545843926.776,281.6174953579534,1398.5347985347985
1650545843926.965,281.6174953579534,1383.8827838827838
1650545843927.997,281.50134048257377,1372.8937728937728
1650545843929.159,281.6174953579534,1363.3699633699632
1650545843929.311,281.6174953579534,1352.3809523809523
1650545843943.127,281.6174953579534,1340.6593406593406
1650545843971.883,281.73374613003097,1331.135531135531
1650545843972.98,281.6174953579534,1324.5421245421244
1650545843973.144,281.73374613003097,1319.4139194139193
1650545843990.641,281.73374613003097,1316.4835164835165
1650545843991.869,281.6174953579534,1315.7509157509157
1650545843993.001,281.6174953579534,1317.9487179487178
1650545843993.1582,281.73374613003097,1321.6117216117216
1650545844006.9412,281.6174953579534,1326.7399267399267
1650545844034.479,281.6174953579534,1328.2051282051282
1650545844035.7349,281.6174953579534,1331.135531135531
1650545844054.494,281.73374613003097,1334.065934065934
1650545844054.7012,281.73374613003097,1341.3919413919414
1650545844055.761,281.85009291761304,1347.985347985348
1650545844056.8691,281.50134048257377,1354.5787545787546
1650545844057.0059,281.73374613003097,1360.4395604395604
1650545844065.77,281.73374613003097,1367.032967032967
1650545844090.7969,281.73374613003097,1371.4285714285713
1650545844092.0479,281.6174953579534,1371.4285714285713
1650545844115.824,281.73374613003097,1366.3003663003662
1650545844116.007,281.73374613003097,1359.7069597069597
1650545844116.079,281.50134048257377,1353.8461538461538
1650545844116.916,281.73374613003097,1345.054945054945
1650545844116.994,281.73374613003097,1335.5311355311355
1650545844125.856,281.6174953579534,1325.2747252747251
1650545844157.2102,281.85009291761304,1317.216117216117
1650545844158.644,281.6174953579534,1312.087912087912
1650545844172.065,281.73374613003097,1304.7619047619046
1650545844172.252,281.73374613003097,1298.168498168498
1650545844173.486,281.73374613003097,1292.3076923076922
1650545844174.631,281.6174953579534,1287.179487179487
1650545844174.9302,281.73374613003097,1282.051282051282
1650545844200.994,281.73374613003097,1276.923076923077
1650545844202.2751,281.85009291761304,1271.7948717948716
1650545844227.271,281.73374613003097,1265.9340659340658
1650545844228.472,281.6174953579534,1261.5384615384614
1650545844228.74,281.85009291761304,1257.8754578754579
1650545844242.2769,281.73374613003097,1257.142857142857
1650545844243.372,281.73374613003097,1256.4102564102564
1650545844243.4968,281.73374613003097,1257.142857142857
1650545844274.896,281.85009291761304,1257.8754578754579
1650545844288.4941,281.85009291761304,1260.07326007326
1650545844288.676,281.73374613003097,1261.5384615384614
1650545844289.742,281.73374613003097,1260.8058608058607
1650545844289.9111,281.85009291761304,1258.6080586080586
1650545844291.108,281.85009291761304,1254.9450549450548
1650545844305.196,281.6174953579534,1254.9450549450548
1650545844305.5762,281.85009291761304,1254.9450549450548
1650545844332.419,281.85009291761304,1256.4102564102564
1650545844333.629,281.85009291761304,1260.07326007326
1650545844352.429,281.73374613003097,1263.003663003663
1650545844352.649,281.85009291761304,1265.9340659340658
1650545844353.8152,281.6174953579534,1271.062271062271
1650545844354.99,281.85009291761304,1276.1904761904761
1650545844379.894,281.73374613003097,1279.120879120879
1650545844380.105,281.85009291761304,1281.3186813186812
1650545844381.323,281.96653583970254,1280.5860805860805
1650545844407.5898,281.85009291761304,1279.120879120879
1650545844408.767,281.73374613003097,1276.1904761904761
1650545844416.2039,281.85009291761304,1274.7252747252746
1650545844416.38,281.85009291761304,1272.5274725274724
1650545844417.5469,281.85009291761304,1272.5274725274724
1650545844444.977,281.73374613003097,1271.7948717948716
1650545844445.1548,281.85009291761304,1271.7948717948716
1650545844446.359,281.85009291761304,1271.062271062271
1650545844466.44,281.96653583970254,1268.8644688644688
1650545844467.706,281.85009291761304,1267.3992673992673
1650545844468.8262,281.85009291761304,1264.4688644688645
1650545844469.007,281.85009291761304,1263.003663003663
1650545844482.7559,281.73374613003097,1263.003663003663
1650545844507.572,281.85009291761304,1263.003663003663
1650545844507.742,281.73374613003097,1263.003663003663
1650545844508.909,281.96653583970254,1265.2014652014652
1650545844533.982,281.96653583970254,1267.3992673992673
1650545844535.2148,281.73374613003097,1271.7948717948716
1650545844537.598,281.96653583970254,1276.1904761904761
1650545844537.745,281.85009291761304,1279.8534798534797
1650545844543.998,281.96653583970254,1280.5860805860805
1650545844571.442,281.85009291761304,1282.051282051282
1650545844571.678,281.85009291761304,1282.051282051282
1650545844572.774,281.96653583970254,1280.5860805860805
1650545844595.344,281.96653583970254,1277.6556776556777
1650545844596.515,281.85009291761304,1275.4578754578754
1650545844596.7131,281.96653583970254,1272.5274725274724
1650545844597.807,281.96653583970254,1273.9926739926739
1650545844606.6401,281.96653583970254,1275.4578754578754
1650545844634.0261,281.85009291761304,1276.923076923077
1650545844634.228,281.85009291761304,1274.7252747252746
1650545844635.3708,281.96653583970254,1271.7948717948716
1650545844652.991,281.96653583970254,1268.131868131868
1650545844654.1072,281.85009291761304,1263.7362637362637
1650545844654.4138,281.96653583970254,1261.5384615384614
1650545844659.184,281.96653583970254,1259.3406593406592
1650545844684.213,281.73374613003097,1260.8058608058607
1650545844685.334,281.85009291761304,1260.8058608058607
1650545844685.506,281.96653583970254,1264.4688644688645
1650545844710.522,281.96653583970254,1271.062271062271
1650545844711.705,281.73374613003097,1282.051282051282
1650545844715.482,281.85009291761304,1296.7032967032967
1650545844724.113,281.96653583970254,1318.6813186813185
1650545844724.233,281.85009291761304,1347.985347985348
1650545844758.09,281.73374613003097,1381.6849816849815
1650545844759.1702,281.96653583970254,1418.3150183150183
1650545844759.309,281.96653583970254,1460.07326007326
1650545844774.3162,281.96653583970254,1499.6336996336995
1650545844775.575,281.96653583970254,1537.7289377289376
1650545844776.8171,281.85009291761304,1570.6959706959706
1650545844785.635,281.96653583970254,1597.069597069597
1650545844785.9348,281.96653583970254,1619.047619047619
1650545844813.163,281.96653583970254,1634.4322344322343
1650545844814.2568,281.85009291761304,1643.2234432234432
1650545844814.392,281.96653583970254,1641.7582417582416
1650545844837.102,281.96653583970254,1633.6996336996335
1650545844838.332,281.85009291761304,1619.7802197802196
1650545844840.568,281.96653583970254,1601.4652014652013
1650545844848.232,281.96653583970254,1576.5567765567764
1650545844848.464,281.96653583970254,1550.18315018315
1650545844874.499,281.96653583970254,1524.5421245421244
1650545844875.609,281.85009291761304,1501.098901098901
1650545844875.7478,281.96653583970254,1481.3186813186812
1650545844894.094,281.85009291761304,1465.201465201465
1650545844894.582,281.96653583970254,1451.2820512820513
1650545844895.934,281.85009291761304,1440.2930402930401
1650545844921.969,281.85009291761304,1429.3040293040292
1650545844922.153,281.96653583970254,1421.245421245421
1650545844923.327,281.96653583970254,1413.9194139194137
1650545844949.667,281.85009291761304,1410.2564102564102
1650545844949.913,281.96653583970254,1407.3260073260071
1650545844951.0,281.96653583970254,1405.8608058608058
1650545844958.387,281.96653583970254,1406.5934065934066
1650545844959.49,281.85009291761304,1408.058608058608
1650545844959.6382,281.85009291761304,1406.5934065934066
1650545844989.7449,281.73374613003097,1405.8608058608058
1650545844990.957,281.96653583970254,1402.197802197802
1650545845012.1829,281.85009291761304,1398.5347985347985
1650545845012.356,281.85009291761304,1394.139194139194
1650545845013.587,281.73374613003097,1389.7435897435896
1650545845014.711,281.96653583970254,1384.6153846153845
1650545845028.351,281.85009291761304,1383.8827838827838
1650545845028.495,281.73374613003097,1383.8827838827838
1650545845054.7942,281.85009291761304,1386.080586080586
1650545845056.0151,281.96653583970254,1386.080586080586
1650545845069.693,281.73374613003097,1387.5457875457876
1650545845069.885,281.85009291761304,1386.8131868131868
1650545845071.0461,281.85009291761304,1384.6153846153845
1650545845072.278,281.85009291761304,1380.952380952381
1650545845086.19,281.85009291761304,1378.7545787545787
1650545845113.517,281.73374613003097,1374.3589743589744
1650545845113.7,281.96653583970254,1367.7655677655678
1650545845114.878,281.85009291761304,1361.904761904762
1650545845138.5952,281.85009291761304,1356.0439560439559
1650545845138.8062,281.85009291761304,1350.9157509157508
1650545845139.97,281.73374613003097,1347.2527472527472
1650545845141.166,281.85009291761304,1344.3223443223442
1650545845168.565,281.73374613003097,1342.1245421245421
1650545845168.7642,281.73374613003097,1338.4615384615383
1650545845169.911,281.73374613003097,1336.263736263736
1650545845194.968,281.85009291761304,1335.5311355311355
1650545845196.0771,281.73374613003097,1334.7985347985348
1650545845196.23,281.73374613003097,1331.8681318681317
1650545845197.443,281.85009291761304,1328.937728937729
1650545845198.6858,281.73374613003097,1326.007326007326
1650545845226.3,281.6174953579534,1322.3443223443223
1650545845227.3381,281.73374613003097,1318.6813186813185
1650545845227.4521,281.73374613003097,1315.018315018315
1650545845253.803,281.6174953579534,1310.6227106227104
1650545845254.947,281.6174953579534,1309.1575091575091
1650545845255.186,281.6174953579534,1306.9597069597069
1650545845256.321,281.73374613003097,1304.7619047619046
1650545845281.328,281.6174953579534,1300.3663003663003
1650545845282.458,281.6174953579534,1296.7032967032967
1650545845282.5579,281.6174953579534,1292.3076923076922
1650545845310.208,281.73374613003097,1290.10989010989
1650545845311.475,281.6174953579534,1289.3772893772893
1650545845315.0461,281.6174953579534,1290.8424908424909
1650545845315.268,281.6174953579534,1290.10989010989
1650545845316.407,281.6174953579534,1289.3772893772893
1650545845341.472,281.3852813852814,1287.179487179487
1650545845342.611,281.50134048257377,1284.2490842490843
1650545845342.803,281.6174953579534,1284.2490842490843
1650545845375.235,281.6174953579534,1285.7142857142856
1650545845376.466,281.3852813852814,1284.9816849816848
1650545845385.222,281.50134048257377,1280.5860805860805
1650545845385.522,281.50134048257377,1276.1904761904761
1650545845414.0242,281.6174953579534,1271.7948717948716
1650545845415.2861,281.50134048257377,1268.8644688644688
1650545845432.6938,281.50134048257377,1269.5970695970695
1650545845432.868,281.3852813852814,1271.062271062271
1650545845434.0752,281.50134048257377,1272.5274725274724
1650545845435.334,281.50134048257377,1274.7252747252746
1650545845436.45,281.50134048257377,1276.923076923077
1650545845436.674,281.50134048257377,1279.120879120879
1650545845442.8389,281.3852813852814,1284.2490842490843
1650545845469.086,281.26931794766125,1290.10989010989
1650545845470.376,281.3852813852814,1292.3076923076922
1650545845491.88,281.50134048257377,1293.040293040293
1650545845492.038,281.50134048257377,1291.5750915750914
1650545845492.9321,281.3852813852814,1290.10989010989
1650545845495.178,281.26931794766125,1289.3772893772893
1650545845495.568,281.3852813852814,1289.3772893772893
1650545845509.223,281.15345005149334,1288.6446886446886
1650545845534.2761,281.3852813852814,1287.179487179487
1650545845535.281,281.26931794766125,1287.9120879120878
1650545845535.404,281.3852813852814,1288.6446886446886
1650545845551.7039,281.3852813852814,1287.179487179487
1650545845552.922,281.26931794766125,1286.4468864468863
1650545845554.047,281.26931794766125,1285.7142857142856
1650545845554.163,281.26931794766125,1285.7142857142856
1650545845567.977,281.15345005149334,1286.4468864468863
1650545845593.075,281.3852813852814,1286.4468864468863
1650545845594.2349,281.15345005149334,1287.179487179487
1650545845615.536,281.26931794766125,1286.4468864468863
1650545845615.764,281.15345005149334,1286.4468864468863
1650545845616.859,281.0376775787523,1284.2490842490843
1650545845617.935,281.15345005149334,1281.3186813186812
1650545845618.155,281.26931794766125,1276.923076923077
1650545845648.092,281.15345005149334,1274.7252747252746
1650545845649.31,281.15345005149334,1273.9926739926739
1650545845676.0981,281.15345005149334,1276.923076923077
1650545845676.899,281.15345005149334,1278.3882783882782
1650545845677.0898,281.15345005149334,1280.5860805860805
1650545845678.224,281.15345005149334,1281.3186813186812
1650545845679.245,281.15345005149334,1284.2490842490843
1650545845679.453,281.0376775787523,1284.2490842490843
1650545845705.679,280.92200041160737,1284.9816849816848
1650545845706.958,281.0376775787523,1283.5164835164835
1650545845734.4648,281.0376775787523,1283.5164835164835
1650545845735.558,281.0376775787523,1286.4468864468863
1650545845735.706,281.0376775787523,1298.168498168498
1650545845739.551,281.0376775787523,1315.7509157509157
1650545845766.915,281.0376775787523,1344.3223443223442
1650545845767.104,281.0376775787523,1379.4871794871794
1650545845768.197,280.92200041160737,1421.245421245421
1650545845792.1729,281.0376775787523,1463.7362637362637
1650545845793.2651,280.92200041160737,1506.227106227106
1650545845794.535,280.92200041160737,1545.7875457875457
1650545845794.707,280.8064184324213,1581.6849816849815
1650545845795.854,280.8064184324213,1610.2564102564102
1650545845827.071,280.8064184324213,1629.3040293040292
1650545845827.25,280.8064184324213,1641.0256410256409
1650545845828.445,280.8064184324213,1643.956043956044
1650545845853.413,280.8064184324213,1638.8278388278386
1650545845854.555,280.6909315237508,1625.6410256410256
1650545845854.793,280.8064184324213,1607.3260073260071
1650545845857.2021,280.8064184324213,1583.150183150183
1650545845858.356,280.6909315237508,1558.2417582417581
1650545845883.371,280.6909315237508,1534.7985347985348
1650545845883.6301,280.6909315237508,1511.3553113553112
1650545845884.757,280.57553956834533,1487.9120879120878
1650545845914.711,280.6909315237508,1466.6666666666665
1650545845915.823,280.57553956834533,1446.8864468864467
1650545845915.977,280.57553956834533,1428.5714285714284
1650545845917.202,280.57553956834533,1413.1868131868132
1650545845918.4329,280.57553956834533,1399.2673992673992
1650545845946.0981,280.46024244914736,1389.0109890109889
1650545845946.335,280.57553956834533,1380.952380952381
1650545845947.468,280.57553956834533,1376.5567765567764
1650545845977.309,280.46024244914736,1375.091575091575
1650545845978.565,280.46024244914736,1378.021978021978
1650545845979.675,280.46024244914736,1380.952380952381
1650545845979.855,280.34504004929147,1384.6153846153845
1650545845981.029,280.46024244914736,1385.3479853479853
1650545846010.978,280.34504004929147,1386.8131868131868
1650545846011.179,280.34504004929147,1387.5457875457876
1650545846012.343,280.46024244914736,1387.5457875457876
1650545846033.664,280.46024244914736,1387.5457875457876
1650545846034.883,280.22993225210433,1390.4761904761904
1650545846036.0469,280.34504004929147,1393.4065934065934
1650545846036.237,280.34504004929147,1397.069597069597
1650545846049.8918,280.22993225210433,1400.7326007326005
1650545846078.826,280.22993225210433,1403.6630036630036
1650545846079.066,280.34504004929147,1406.5934065934066
1650545846080.024,280.34504004929147,1408.7912087912086
1650545846094.914,280.22993225210433,1410.989010989011
1650545846099.864,280.11491894110407,1411.7216117216117
1650545846100.032,280.22993225210433,1410.2564102564102
1650545846100.115,280.22993225210433,1408.058608058608
1650545846108.692,280.22993225210433,1405.128205128205
1650545846136.133,280.11491894110407,1402.9304029304028
1650545846136.3,280.11491894110407,1397.069597069597
1650545846137.503,280.11491894110407,1392.6739926739926
1650545846157.5652,280.11491894110407,1388.278388278388
1650545846158.653,280.0,1384.6153846153845
1650545846158.812,280.0,1376.5567765567764
1650545846159.991,280.0,1367.032967032967
1650545846185.122,279.88517531269224,1358.2417582417581
1650545846186.3142,279.88517531269224,1349.4505494505493
1650545846186.5388,280.0,1340.6593406593406
1650545846213.84,280.0,1332.6007326007325
1650545846215.06,279.88517531269224,1324.5421245421244
1650545846216.304,279.88517531269224,1317.9487179487178
1650545846230.0369,279.88517531269224,1313.5531135531135
1650545846230.254,279.88517531269224,1310.6227106227104
1650545846255.1528,279.88517531269224,1306.9597069597069
1650545846256.254,279.7704447632712,1304.0293040293038
1650545846256.4138,279.7704447632712,1304.0293040293038
1650545846280.272,279.7704447632712,1304.0293040293038
1650545846281.444,279.7704447632712,1304.7619047619046
1650545846282.5552,279.5412656154004,1306.9597069597069
1650545846282.706,279.6558082360172,1308.4249084249084
1650545846283.9128,279.6558082360172,1309.89010989011
1650545846315.213,279.4268167860799,1312.087912087912
1650545846316.3682,279.5412656154004,1311.3553113553112
1650545846316.567,279.5412656154004,1311.3553113553112
1650545846334.059,279.5412656154004,1309.1575091575091
1650545846335.29,279.5412656154004,1305.4945054945053
1650545846336.633,279.4268167860799,1299.6336996336995
1650545846350.2542,279.5412656154004,1294.5054945054944
1650545846350.584,279.31246163290365,1287.9120879120878
1650545846376.514,279.5412656154004,1281.3186813186812
1650545846377.6802,279.31246163290365,1278.3882783882782
1650545846377.923,279.4268167860799,1276.923076923077
1650545846394.326,279.31246163290365,1278.3882783882782
1650545846395.395,279.31246163290365,1284.2490842490843
1650545846396.6528,279.1982000409082,1293.040293040293
1650545846410.233,279.31246163290365,1301.098901098901
1650545846410.435,279.1982000409082,1309.89010989011
1650545846439.138,279.1982000409082,1321.6117216117216
1650545846440.2312,279.31246163290365,1331.135531135531
1650545846440.387,279.1982000409082,1338.4615384615383
1650545846455.362,279.1982000409082,1342.1245421245421
1650545846456.5798,279.1982000409082,1342.1245421245421
1650545846465.477,279.08403189531793,1342.1245421245421
1650545846496.5862,279.08403189531793,1341.3919413919414
1650545846496.84,279.08403189531793,1339.9267399267399
1650545846497.921,279.08403189531793,1335.5311355311355
1650545846515.507,279.08403189531793,1328.937728937729
1650545846515.699,279.08403189531793,1323.076923076923
1650545846516.717,278.9699570815451,1316.4835164835165
1650545846518.081,278.9699570815451,1310.6227106227104
1650545846526.5852,278.855975485189,1303.2967032967033
1650545846526.698,278.855975485189,1297.4358974358975
1650545846556.731,278.855975485189,1291.5750915750914
1650545846558.0051,278.9699570815451,1288.6446886446886
1650545846579.1372,278.855975485189,1286.4468864468863
1650545846579.252,278.855975485189,1282.051282051282
1650545846580.4639,278.855975485189,1279.120879120879
1650545846581.7449,278.855975485189,1274.7252747252746
1650545846609.321,278.742086992036,1270.3296703296703
1650545846610.388,278.742086992036,1265.9340659340658
1650545846610.503,278.855975485189,1264.4688644688645
1650545846635.71,278.855975485189,1265.2014652014652
1650545846636.7642,278.742086992036,1267.3992673992673
1650545846636.9531,278.742086992036,1271.7948717948716
1650545846644.72,278.742086992036,1276.923076923077
1650545846645.746,278.742086992036,1279.8534798534797
1650545846646.929,278.51458885941645,1283.5164835164835
1650545846676.7659,278.62829148805884,1284.9816849816848
1650545846676.919,278.51458885941645,1285.7142857142856
1650545846678.195,278.62829148805884,1287.9120879120878
1650545846691.805,278.51458885941645,1294.5054945054944
1650545846691.9912,278.51458885941645,1307.6923076923076
1650545846693.145,278.51458885941645,1326.7399267399267
1650545846706.9348,278.51458885941645,1351.6483516483515
1650545846734.366,278.28746177370033,1380.2197802197802
1650545846734.55,278.51458885941645,1412.4542124542124
1650545846735.666,278.40097899245364,1447.6190476190475
1650545846759.519,278.40097899245364,1484.2490842490843
1650545846760.5889,278.40097899245364,1519.4139194139193
1650545846760.712,278.40097899245364,1552.3809523809523
1650545846761.943,278.40097899245364,1582.4175824175823
1650545846763.258,278.40097899245364,1608.7912087912086
1650545846791.208,278.28746177370033,1628.5714285714284
1650545846791.411,278.28746177370033,1639.5604395604394
1650545846791.541,278.28746177370033,1642.4908424908424
1650545846817.2441,278.28746177370033,1638.095238095238
1650545846818.359,278.17403708987166,1626.3736263736262
1650545846818.768,278.28746177370033,1608.058608058608
1650545846822.154,278.17403708987166,1587.5457875457873
1650545846828.365,278.28746177370033,1561.9047619047617
1650545846855.7761,278.17403708987166,1534.065934065934
1650545846856.0022,278.17403708987166,1507.6923076923076
1650545846857.086,278.28746177370033,1482.7838827838827
1650545846874.634,278.17403708987166,1462.2710622710622
1650545846875.7131,278.0607048278672,1443.956043956044
1650545846875.834,278.17403708987166,1427.106227106227
1650545846877.0771,278.17403708987166,1411.7216117216117
1650545846890.971,277.94746487477096,1402.197802197802
1650545846918.407,278.0607048278672,1394.8717948717947
1650545846918.589,278.0607048278672,1391.9413919413919
1650545846919.744,278.0607048278672,1391.2087912087911
1650545846933.4878,278.0607048278672,1393.4065934065934
1650545846934.594,277.94746487477096,1392.6739926739926
1650545846934.823,277.8343171178506,1391.2087912087911
1650545846948.509,278.17403708987166,1387.5457875457876
1650545846974.761,277.94746487477096,1385.3479853479853
1650545846975.841,277.94746487477096,1380.952380952381
1650545846975.977,277.94746487477096,1380.2197802197802
1650545846999.875,278.0607048278672,1380.2197802197802
1650545847001.0469,277.94746487477096,1381.6849816849815
1650545847002.229,277.8343171178506,1384.6153846153845
1650545847002.5598,277.94746487477096,1387.5457875457876
1650545847008.621,277.94746487477096,1391.9413919413919
1650545847046.157,277.7212614445575,1400.0
1650545847047.4119,277.8343171178506,1404.3956043956043
1650545847052.389,277.8343171178506,1407.3260073260071
1650545847052.783,277.94746487477096,1409.5238095238094
1650545847053.7778,277.94746487477096,1413.1868131868132
1650545847059.808,277.8343171178506,1418.3150183150183
1650545847059.9648,277.8343171178506,1421.245421245421
1650545847084.877,277.8343171178506,1420.5128205128203
1650545847086.082,277.8343171178506,1418.3150183150183
1650545847111.295,277.7212614445575,1413.9194139194137
1650545847112.284,277.94746487477096,1409.5238095238094
1650545847112.418,277.8343171178506,1402.9304029304028
1650545847123.717,277.8343171178506,1396.3369963369962
1650545847124.769,277.7212614445575,1390.4761904761904
1650545847124.892,277.7212614445575,1383.8827838827838
1650545847129.93,277.8343171178506,1374.3589743589744
1650545847166.2258,277.7212614445575,1364.8351648351647
1650545847167.427,277.7212614445575,1355.3113553113553
1650545847172.311,277.7212614445575,1347.985347985348
1650545847172.441,277.7212614445575,1342.1245421245421
1650545847173.691,277.7212614445575,1338.4615384615383
1650545847182.438,277.60829774252596,1334.7985347985348
1650545847182.626,277.7212614445575,1332.6007326007325
1650545847207.5168,277.7212614445575,1331.8681318681317
1650545847208.7659,277.7212614445575,1331.135531135531
1650545847237.937,277.60829774252596,1331.135531135531
1650545847240.04,277.60829774252596,1330.4029304029302
1650545847240.3,277.60829774252596,1327.4725274725274
1650545847240.418,277.60829774252596,1322.3443223443223
1650545847244.975,277.4954258995731,1317.216117216117
1650545847245.1538,277.60829774252596,1315.018315018315
1650545847272.805,277.60829774252596,1313.5531135531135
1650545847273.8699,277.60829774252596,1311.3553113553112
1650545847297.7532,277.4954258995731,1306.227106227106
1650545847298.796,277.4954258995731,1304.0293040293038
1650545847298.949,277.60829774252596,1300.3663003663003
1650545847300.0579,277.4954258995731,1295.970695970696
1650545847308.913,277.38264580369844,1293.040293040293
1650545847309.0652,277.4954258995731,1290.10989010989
1650545847336.493,277.4954258995731,1287.179487179487
1650545847337.873,277.60829774252596,1284.9816849816848
1650545847357.6292,277.38264580369844,1285.7142857142856
1650545847357.75,277.4954258995731,1285.7142857142856
1650545847358.979,277.38264580369844,1284.2490842490843
1650545847360.193,277.4954258995731,1283.5164835164835
1650545847395.195,277.38264580369844,1280.5860805860805
1650545847395.4338,277.4954258995731,1277.6556776556777
1650545847396.575,277.4954258995731,1274.7252747252746
1650545847420.685,277.4954258995731,1273.260073260073
1650545847421.4822,277.38264580369844,1273.9926739926739
1650545847421.692,277.38264580369844,1277.6556776556777
1650545847422.861,277.38264580369844,1282.051282051282
1650545847424.0688,277.38264580369844,1285.7142857142856
1650545847449.063,277.38264580369844,1286.4468864468863
1650545847449.258,277.38264580369844,1287.179487179487
1650545847450.424,277.38264580369844,1285.7142857142856
1650545847474.204,277.38264580369844,1284.9816849816848
1650545847475.413,277.2699573430835,1282.051282051282
1650545847476.591,277.38264580369844,1277.6556776556777
1650545847476.789,277.4954258995731,1273.260073260073
1650545847485.355,277.38264580369844,1270.3296703296703
1650545847511.5408,277.2699573430835,1266.6666666666665
1650545847511.7021,277.38264580369844,1263.7362637362637
1650545847512.867,277.38264580369844,1262.2710622710622
1650545847537.981,277.38264580369844,1263.7362637362637
1650545847539.0698,277.2699573430835,1268.131868131868
1650545847539.308,277.38264580369844,1271.062271062271
1650545847540.407,277.38264580369844,1272.5274725274724
1650545847549.308,277.38264580369844,1273.9926739926739
1650545847580.352,277.2699573430835,1273.9926739926739
1650545847580.559,277.2699573430835,1273.9926739926739
1650545847581.791,277.2699573430835,1275.4578754578754
1650545847594.1821,277.38264580369844,1276.923076923077
1650545847595.398,277.2699573430835,1276.1904761904761
1650545847596.478,277.2699573430835,1276.1904761904761
1650545847596.527,277.38264580369844,1273.9926739926739
1650545847610.5881,277.1573604060914,1271.7948717948716
1650545847635.468,277.2699573430835,1269.5970695970695
1650545847635.645,277.2699573430835,1268.8644688644688
1650545847636.7231,277.38264580369844,1266.6666666666665
1650545847657.9822,277.2699573430835,1265.9340659340658
1650545847659.113,277.2699573430835,1265.9340659340658
1650545847659.249,277.2699573430835,1268.131868131868
1650545847660.4631,277.2699573430835,1270.3296703296703
1650545847686.776,277.04485488126653,1273.260073260073
1650545847687.8792,277.2699573430835,1276.1904761904761
1650545847688.008,277.2699573430835,1279.120879120879
1650545847714.419,277.2699573430835,1281.3186813186812
1650545847715.6628,277.2699573430835,1282.7838827838827
1650545847716.817,277.2699573430835,1284.2490842490843
1650545847742.939,277.2699573430835,1283.5164835164835
1650545847743.0552,277.2699573430835,1285.7142857142856
1650545847770.601,277.2699573430835,1291.5750915750914
1650545847771.688,277.2699573430835,1301.098901098901
1650545847771.811,277.2699573430835,1315.018315018315
1650545847775.5671,277.2699573430835,1335.5311355311355
1650545847776.8062,277.38264580369844,1360.4395604395604
1650545847778.02,277.1573604060914,1391.9413919413919
1650545847778.1628,277.2699573430835,1428.5714285714284
1650545847792.155,277.2699573430835,1468.8644688644688
1650545847819.468,277.2699573430835,1510.6227106227104
1650545847820.544,277.1573604060914,1550.18315018315
1650545847820.721,277.2699573430835,1586.8131868131868
1650545847839.667,277.2699573430835,1616.117216117216
1650545847840.741,277.2699573430835,1639.5604395604394
1650545847841.929,277.1573604060914,1654.9450549450548
1650545847842.1272,277.2699573430835,1664.4688644688645
1650545847873.27,277.2699573430835,1666.6666666666665
1650545847874.56,277.2699573430835,1661.5384615384614
1650545847899.384,277.1573604060914,1646.153846153846
1650545847899.542,277.38264580369844,1627.106227106227
1650545847900.6929,277.2699573430835,1602.197802197802
1650545847901.9329,277.2699573430835,1573.6263736263736
1650545847903.1702,277.2699573430835,1544.3223443223442
1650545847929.492,277.2699573430835,1514.2857142857142
1650545847929.8142,277.2699573430835,1486.4468864468863
1650545847930.764,277.38264580369844,1461.5384615384614
1650545847955.7632,277.1573604060914,1439.5604395604394
1650545847955.957,277.2699573430835,1421.9780219780218
1650545847957.011,277.38264580369844,1407.3260073260071
1650545847963.382,277.2699573430835,1395.6043956043954
1650545847964.555,277.2699573430835,1386.8131868131868
1650545847989.5388,277.2699573430835,1382.4175824175823
1650545847989.774,277.2699573430835,1380.952380952381
1650545847990.8618,277.38264580369844,1380.2197802197802
1650545848012.049,277.2699573430835,1381.6849816849815
1650545848012.234,277.38264580369844,1383.150183150183
1650545848013.355,277.2699573430835,1385.3479853479853
1650545848014.688,277.38264580369844,1389.0109890109889
1650545848028.3862,277.2699573430835,1394.8717948717947
1650545848054.527,277.38264580369844,1400.7326007326005
1650545848054.707,277.38264580369844,1404.3956043956043
1650545848055.907,277.38264580369844,1405.8608058608058
1650545848082.28,277.2699573430835,1406.5934065934066
1650545848082.5752,277.4954258995731,1406.5934065934066
1650545848083.414,277.2699573430835,1408.7912087912086
1650545848084.697,277.38264580369844,1410.2564102564102
1650545848109.73,277.2699573430835,1413.9194139194137
1650545848110.875,277.4954258995731,1413.9194139194137
1650545848111.0671,277.38264580369844,1414.6520146520145
1650545848138.586,277.4954258995731,1413.1868131868132
1650545848139.631,277.38264580369844,1412.4542124542124
1650545848139.771,277.4954258995731,1410.2564102564102
1650545848140.9421,277.4954258995731,1407.3260073260071
1650545848142.2861,277.4954258995731,1403.6630036630036
1650545848167.284,277.2699573430835,1398.5347985347985
1650545848167.4421,277.38264580369844,1391.9413919413919
1650545848168.535,277.4954258995731,1385.3479853479853
1650545848193.763,277.4954258995731,1379.4871794871794
1650545848194.71,277.38264580369844,1373.6263736263736
1650545848194.8071,277.4954258995731,1365.5677655677655
1650545848201.17,277.38264580369844,1357.5091575091574
1650545848202.463,277.4954258995731,1349.4505494505493
1650545848227.205,277.38264580369844,1341.3919413919414
1650545848227.5332,277.38264580369844,1334.7985347985348
1650545848228.523,277.4954258995731,1328.2051282051282
1650545848253.651,277.4954258995731,1323.076923076923
1650545848254.701,277.38264580369844,1318.6813186813185
1650545848254.893,277.4954258995731,1316.4835164835165
1650545848256.0771,277.4954258995731,1314.2857142857142
1650545848269.8928,277.4954258995731,1312.087912087912
1650545848297.041,277.38264580369844,1309.89010989011
1650545848297.2668,277.4954258995731,1308.4249084249084
1650545848297.3599,277.4954258995731,1308.4249084249084
1650545848316.138,277.4954258995731,1309.89010989011
1650545848317.2532,277.38264580369844,1310.6227106227104
1650545848317.3872,277.4954258995731,1311.3553113553112
1650545848318.661,277.4954258995731,1311.3553113553112
1650545848354.958,277.60829774252596,1308.4249084249084
1650545848356.056,277.4954258995731,1304.7619047619046
1650545848356.22,277.4954258995731,1301.098901098901
1650545848377.636,277.38264580369844,1299.6336996336995
1650545848378.8828,277.4954258995731,1297.4358974358975
1650545848379.9019,277.4954258995731,1295.2380952380952
1650545848380.053,277.4954258995731,1294.5054945054944
1650545848388.716,277.38264580369844,1294.5054945054944
1650545848389.979,277.38264580369844,1293.040293040293
1650545848414.9329,277.4954258995731,1290.10989010989
1650545848415.178,277.60829774252596,1288.6446886446886
1650545848416.2322,277.4954258995731,1288.6446886446886
1650545848436.2659,277.60829774252596,1289.3772893772893
1650545848437.368,277.4954258995731,1290.8424908424909
1650545848437.55,277.60829774252596,1293.040293040293
1650545848446.374,277.4954258995731,1293.040293040293
1650545848472.533,277.60829774252596,1293.7728937728937
1650545848473.644,277.4954258995731,1298.168498168498
1650545848473.809,277.60829774252596,1303.2967032967033
1650545848500.094,277.60829774252596,1304.7619047619046
1650545848501.2961,277.60829774252596,1304.7619047619046
1650545848502.409,277.60829774252596,1301.8315018315018
1650545848502.568,277.60829774252596,1301.098901098901
1650545848503.774,277.60829774252596,1298.9010989010987
1650545848533.8572,277.38264580369844,1299.6336996336995
1650545848535.085,277.60829774252596,1297.4358974358975
1650545848558.753,277.7212614445575,1295.970695970696
1650545848558.941,277.60829774252596,1293.7728937728937
1650545848560.12,277.4954258995731,1291.5750915750914
1650545848561.2249,277.4954258995731,1289.3772893772893
1650545848561.379,277.60829774252596,1288.6446886446886
1650545848570.144,277.60829774252596,1287.9120879120878
1650545848595.176,277.7212614445575,1286.4468864468863
1650545848596.364,277.60829774252596,1283.5164835164835
1650545848618.871,277.7212614445575,1279.8534798534797
1650545848619.091,277.7212614445575,1276.923076923077
1650545848620.207,277.4954258995731,1276.1904761904761
1650545848621.391,277.60829774252596,1276.1904761904761
1650545848622.647,277.7212614445575,1276.923076923077
1650545848653.9568,277.60829774252596,1277.6556776556777
1650545848655.2,277.8343171178506,1277.6556776556777
1650545848676.467,277.7212614445575,1278.3882783882782
1650545848677.66,277.7212614445575,1280.5860805860805
1650545848677.877,277.60829774252596,1283.5164835164835
1650545848682.868,277.8343171178506,1286.4468864468863
1650545848708.905,277.7212614445575,1287.179487179487
1650545848709.099,277.8343171178506,1284.2490842490843
1650545848710.27,277.7212614445575,1280.5860805860805
1650545848736.649,277.8343171178506,1279.8534798534797
1650545848737.8162,277.7212614445575,1279.8534798534797
1650545848738.007,277.8343171178506,1279.120879120879
1650545848739.018,277.8343171178506,1280.5860805860805
1650545848740.318,277.7212614445575,1283.5164835164835
1650545848748.931,277.7212614445575,1287.179487179487
1650545848749.093,277.7212614445575,1290.10989010989
1650545848786.777,277.94746487477096,1290.10989010989
1650545848787.9219,277.8343171178506,1289.3772893772893
1650545848796.5989,277.7212614445575,1287.9120879120878
1650545848797.769,277.94746487477096,1287.9120879120878
1650545848797.972,277.8343171178506,1290.8424908424909
1650545848799.075,277.94746487477096,1298.168498168498
1650545848812.737,277.8343171178506,1312.8205128205127
1650545848812.9211,277.8343171178506,1332.6007326007325
1650545848842.9128,277.94746487477096,1359.7069597069597
1650545848844.106,277.94746487477096,1390.4761904761904
1650545848856.5112,277.94746487477096,1426.3736263736262
1650545848856.69,277.94746487477096,1465.9340659340658
1650545848857.856,277.94746487477096,1506.9597069597069
1650545848859.0952,277.94746487477096,1547.985347985348
1650545848872.886,277.94746487477096,1583.8827838827838
1650545848873.1401,278.0607048278672,1616.117216117216
1650545848901.6672,278.0607048278672,1641.0256410256409
1650545848902.9,278.0607048278672,1657.142857142857
1650545848919.143,277.94746487477096,1665.201465201465
1650545848919.303,278.0607048278672,1665.201465201465
1650545848920.581,278.0607048278672,1657.8754578754579
1650545848921.788,278.0607048278672,1641.7582417582416
1650545848950.361,278.0607048278672,1619.047619047619
1650545848950.5342,278.0607048278672,1591.9413919413919
1650545848951.684,278.17403708987166,1561.9047619047617
1650545848976.786,278.0607048278672,1531.8681318681317
1650545848977.984,278.0607048278672,1501.098901098901
1650545848982.961,278.0607048278672,1471.062271062271
1650545848983.349,278.28746177370033,1443.2234432234432
1650545848984.28,278.17403708987166,1421.9780219780218
1650545849009.151,278.17403708987166,1405.128205128205
1650545849009.306,278.0607048278672,1391.2087912087911
1650545849010.605,278.28746177370033,1380.2197802197802
1650545849035.5989,278.17403708987166,1374.3589743589744
1650545849036.754,278.17403708987166,1372.161172161172
1650545849042.896,278.28746177370033,1371.4285714285713
1650545849043.042,278.28746177370033,1372.161172161172
1650545849044.269,278.28746177370033,1373.6263736263736
1650545849074.227,278.28746177370033,1372.8937728937728
1650545849074.413,278.17403708987166,1372.8937728937728
1650545849075.598,278.28746177370033,1372.161172161172
1650545849093.088,278.28746177370033,1372.161172161172
1650545849094.358,278.28746177370033,1372.8937728937728
1650545849102.998,278.40097899245364,1372.8937728937728
1650545849103.179,278.17403708987166,1374.3589743589744
1650545849138.1472,278.40097899245364,1375.8241758241757
1650545849139.2268,278.40097899245364,1379.4871794871794
1650545849139.372,278.40097899245364,1384.6153846153845
1650545849155.6858,278.28746177370033,1392.6739926739926
1650545849156.903,278.40097899245364,1400.0
1650545849157.9958,278.40097899245364,1405.8608058608058
1650545849158.1572,278.51458885941645,1409.5238095238094
1650545849166.952,278.40097899245364,1411.7216117216117
1650545849193.154,278.40097899245364,1413.9194139194137
1650545849194.354,278.40097899245364,1413.9194139194137
1650545849194.538,278.51458885941645,1412.4542124542124
1650545849219.442,278.51458885941645,1409.5238095238094
1650545849220.791,278.51458885941645,1405.8608058608058
1650545849221.915,278.40097899245364,1402.197802197802
1650545849223.051,278.40097899245364,1396.3369963369962
1650545849223.201,278.51458885941645,1389.0109890109889
1650545849251.962,278.40097899245364,1380.952380952381
1650545849253.0762,278.62829148805884,1372.8937728937728
1650545849253.217,278.62829148805884,1367.7655677655678
1650545849278.24,278.62829148805884,1360.4395604395604
1650545849279.4631,278.40097899245364,1353.8461538461538
1650545849280.605,278.62829148805884,1344.3223443223442
1650545849280.7769,278.62829148805884,1336.263736263736
1650545849289.5242,278.62829148805884,1329.6703296703297
1650545849314.5151,278.62829148805884,1324.5421245421244
1650545849339.5059,278.62829148805884,1319.4139194139193
1650545849339.662,278.742086992036,1315.018315018315
1650545849340.883,278.742086992036,1309.1575091575091
1650545849342.188,278.51458885941645,1305.4945054945053
1650545849343.366,278.62829148805884,1301.098901098901
1650545849351.998,278.62829148805884,1296.7032967032967
1650545849352.244,278.62829148805884,1293.7728937728937
1650545849378.337,278.742086992036,1292.3076923076922
1650545849379.457,278.742086992036,1291.5750915750914
1650545849379.649,278.855975485189,1291.5750915750914
1650545849395.8699,278.742086992036,1293.7728937728937
1650545849397.0498,278.51458885941645,1296.7032967032967
1650545849403.328,278.62829148805884,1297.4358974358975
1650545849428.246,278.742086992036,1297.4358974358975
1650545849428.439,278.855975485189,1297.4358974358975
1650545849429.6228,278.742086992036,1300.3663003663003
1650545849459.821,278.742086992036,1303.2967032967033
1650545849460.0388,278.742086992036,1306.9597069597069
1650545849460.94,278.855975485189,1310.6227106227104
1650545849462.209,278.742086992036,1312.8205128205127
1650545849463.419,278.855975485189,1315.7509157509157
1650545849489.5388,278.855975485189,1317.216117216117
1650545849489.715,278.855975485189,1320.8791208791208
1650545849491.027,278.855975485189,1321.6117216117216
1650545849515.826,278.855975485189,1320.14652014652
1650545849515.992,278.9699570815451,1319.4139194139193
1650545849517.23,278.9699570815451,1317.9487179487178
1650545849518.449,278.855975485189,1317.216117216117
1650545849532.1829,278.855975485189,1315.018315018315
1650545849532.503,278.855975485189,1313.5531135531135
1650545849557.2122,278.9699570815451,1312.087912087912
1650545849558.445,278.9699570815451,1309.89010989011
1650545849579.637,278.9699570815451,1307.6923076923076
1650545849579.818,278.9699570815451,1306.9597069597069
1650545849581.045,278.855975485189,1305.4945054945053
1650545849582.229,278.9699570815451,1303.2967032967033
1650545849607.2258,278.9699570815451,1302.5641025641025
1650545849607.441,278.855975485189,1303.2967032967033
1650545849608.581,278.9699570815451,1301.8315018315018
1650545849633.5771,279.08403189531793,1298.9010989010987
1650545849634.6482,279.08403189531793,1295.970695970696
1650545849634.827,279.08403189531793,1294.5054945054944
1650545849643.492,278.9699570815451,1291.5750915750914
1650545849644.714,279.1982000409082,1288.6446886446886
1650545849672.2168,279.08403189531793,1285.7142857142856
1650545849672.445,278.9699570815451,1284.2490842490843
1650545849673.542,279.1982000409082,1283.5164835164835
1650545849694.7852,279.08403189531793,1282.051282051282
1650545849695.949,279.08403189531793,1280.5860805860805
1650545849696.124,278.9699570815451,1281.3186813186812
1650545849697.299,279.1982000409082,1283.5164835164835
1650545849706.166,279.1982000409082,1284.9816849816848
1650545849740.9749,279.1982000409082,1284.2490842490843
1650545849741.149,278.9699570815451,1283.5164835164835
1650545849742.376,279.1982000409082,1282.7838827838827
1650545849762.437,279.1982000409082,1279.120879120879
1650545849763.5059,279.1982000409082,1278.3882783882782
1650545849763.687,279.08403189531793,1276.923076923077
1650545849764.8262,279.1982000409082,1275.4578754578754
1650545849766.1992,279.1982000409082,1276.923076923077
1650545849791.271,279.1982000409082,1284.9816849816848
1650545849792.414,279.08403189531793,1298.9010989010987
1650545849792.669,279.31246163290365,1318.6813186813185
1650545849817.42,279.31246163290365,1346.5201465201465
1650545849818.524,279.1982000409082,1379.4871794871794
1650545849818.674,279.1982000409082,1418.3150183150183
1650545849824.9258,279.31246163290365,1458.6080586080584
1650545849829.994,279.31246163290365,1495.970695970696
1650545849861.2722,279.31246163290365,1534.065934065934
1650545849862.343,279.1982000409082,1568.4981684981683
1650545849862.5269,279.4268167860799,1594.8717948717947
1650545849881.335,279.4268167860799,1613.186813186813
1650545849882.3792,279.31246163290365,1624.9084249084249
1650545849882.562,279.31246163290365,1632.9670329670328
1650545849883.84,279.4268167860799,1632.2344322344322
1650545849910.014,279.4268167860799,1624.1758241758241
1650545849911.0989,279.31246163290365,1608.7912087912086
1650545849911.3281,279.31246163290365,1589.7435897435896
1650545849933.784,279.5412656154004,1564.8351648351647
1650545849934.998,279.31246163290365,1539.9267399267399
1650545849936.2432,279.5412656154004,1511.3553113553112
1650545849936.443,279.31246163290365,1483.5164835164835
1650545849950.031,279.4268167860799,1454.9450549450548
1650545849951.292,279.5412656154004,1430.03663003663
1650545849976.364,279.6558082360172,1409.5238095238094
1650545849977.562,279.5412656154004,1394.8717948717947
1650545849977.7542,279.5412656154004,1383.150183150183
1650545850002.664,279.5412656154004,1374.3589743589744
1650545850003.726,279.5412656154004,1368.4981684981683
1650545850003.947,279.5412656154004,1366.3003663003662
1650545850005.076,279.6558082360172,1366.3003663003662
1650545850032.581,279.31246163290365,1365.5677655677655
1650545850033.808,279.6558082360172,1363.3699633699632
1650545850057.724,279.5412656154004,1361.904761904762
1650545850057.963,279.6558082360172,1361.1721611721612
1650545850058.863,279.6558082360172,1362.6373626373625
1650545850060.074,279.5412656154004,1362.6373626373625
1650545850060.2551,279.5412656154004,1362.6373626373625
1650545850073.904,279.5412656154004,1363.3699633699632
1650545850099.133,279.7704447632712,1365.5677655677655
1650545850100.228,279.6558082360172,1370.6959706959706
1650545850115.001,279.6558082360172,1376.5567765567764
1650545850115.1719,279.6558082360172,1386.080586080586
1650545850116.425,279.6558082360172,1394.139194139194
1650545850122.531,279.6558082360172,1404.3956043956043
1650545850122.732,279.5412656154004,1413.1868131868132
1650545850148.959,279.7704447632712,1416.117216117216
1650545850150.1929,279.6558082360172,1417.5824175824175
1650545850176.344,279.7704447632712,1417.5824175824175
1650545850176.568,279.6558082360172,1415.3846153846152
1650545850177.718,279.6558082360172,1412.4542124542124
1650545850178.948,279.7704447632712,1408.058608058608
1650545850188.962,279.7704447632712,1400.0
1650545850189.2131,279.5412656154004,1391.2087912087911
1650545850224.0042,279.7704447632712,1376.5567765567764
1650545850225.139,279.6558082360172,1364.8351648351647
1650545850237.75,279.7704447632712,1353.8461538461538
1650545850238.828,279.5412656154004,1345.7875457875457
1650545850238.995,279.6558082360172,1338.4615384615383
1650545850241.2,279.7704447632712,1330.4029304029302
1650545850248.893,279.7704447632712,1325.2747252747251
1650545850249.0908,279.6558082360172,1321.6117216117216
1650545850274.0122,279.7704447632712,1317.9487179487178
1650545850275.2422,279.6558082360172,1315.7509157509157
1650545850300.23,279.7704447632712,1315.7509157509157
1650545850300.466,279.6558082360172,1314.2857142857142
1650545850301.61,279.7704447632712,1309.89010989011
1650545850302.744,279.6558082360172,1304.0293040293038
1650545850311.382,279.7704447632712,1297.4358974358975
1650545850311.544,279.6558082360172,1292.3076923076922
1650545850336.598,279.6558082360172,1286.4468864468863
1650545850337.731,279.7704447632712,1284.9816849816848
1650545850357.78,279.6558082360172,1285.7142857142856
1650545850358.905,279.6558082360172,1288.6446886446886
1650545850359.0022,279.6558082360172,1293.040293040293
1650545850360.2368,279.6558082360172,1294.5054945054944
1650545850377.167,279.6558082360172,1295.970695970696
1650545850377.364,279.5412656154004,1299.6336996336995
1650545850401.747,279.6558082360172,1301.098901098901
1650545850402.8472,279.6558082360172,1304.0293040293038
1650545850421.511,279.6558082360172,1307.6923076923076
1650545850421.771,279.5412656154004,1311.3553113553112
1650545850422.814,279.6558082360172,1312.8205128205127
1650545850452.873,279.6558082360172,1312.087912087912
1650545850454.178,279.6558082360172,1311.3553113553112
1650545850454.5332,279.5412656154004,1310.6227106227104
1650545850480.382,279.5412656154004,1312.087912087912
1650545850481.658,279.6558082360172,1311.3553113553112
1650545850482.845,279.5412656154004,1309.1575091575091
1650545850483.969,279.6558082360172,1307.6923076923076
1650545850484.116,279.6558082360172,1307.6923076923076
1650545850485.341,279.5412656154004,1309.1575091575091
1650545850520.295,279.5412656154004,1311.3553113553112
1650545850520.484,279.4268167860799,1313.5531135531135
1650545850521.676,279.5412656154004,1314.2857142857142
1650545850536.9001,279.6558082360172,1313.5531135531135
1650545850538.22,279.5412656154004,1313.5531135531135
1650545850539.074,279.5412656154004,1313.5531135531135
1650545850539.288,279.5412656154004,1312.8205128205127
1650545850552.9749,279.5412656154004,1312.087912087912
1650545850585.5762,279.5412656154004,1308.4249084249084
1650545850585.988,279.4268167860799,1305.4945054945053
1650545850586.965,279.5412656154004,1303.2967032967033
1650545850596.752,279.5412656154004,1303.2967032967033
1650545850597.92,279.4268167860799,1306.9597069597069
1650545850599.039,279.4268167860799,1311.3553113553112
1650545850599.157,279.4268167860799,1314.2857142857142
1650545850612.9912,279.31246163290365,1317.216117216117
1650545850637.9011,279.4268167860799,1316.4835164835165
1650545850638.145,279.31246163290365,1317.216117216117
1650545850639.2031,279.4268167860799,1315.7509157509157
1650545850660.443,279.4268167860799,1315.018315018315
1650545850661.67,279.4268167860799,1312.8205128205127
1650545850661.8298,279.31246163290365,1310.6227106227104
1650545850663.009,279.31246163290365,1306.9597069597069
1650545850690.5269,279.1982000409082,1303.2967032967033
1650545850691.63,279.31246163290365,1301.8315018315018
1650545850691.773,279.31246163290365,1301.098901098901
1650545850719.366,279.31246163290365,1299.6336996336995
1650545850720.549,279.08403189531793,1298.9010989010987
1650545850725.374,279.31246163290365,1299.6336996336995
1650545850725.512,279.08403189531793,1304.7619047619046
1650545850726.797,279.1982000409082,1315.018315018315
1650545850751.932,279.1982000409082,1331.135531135531
1650545850752.9668,279.1982000409082,1355.3113553113553
1650545850753.236,279.08403189531793,1386.080586080586
1650545850778.079,279.08403189531793,1422.7106227106226
1650545850779.277,278.9699570815451,1463.7362637362637
1650545850780.548,279.08403189531793,1507.6923076923076
1650545850794.224,278.9699570815451,1553.113553113553
1650545850794.462,278.9699570815451,1591.9413919413919
1650545850821.926,278.9699570815451,1624.1758241758241
1650545850839.288,278.9699570815451,1648.3516483516482
1650545850839.536,278.855975485189,1665.201465201465
1650545850840.5918,278.855975485189,1673.260073260073
1650545850841.889,278.855975485189,1673.9926739926739
1650545850842.973,278.855975485189,1668.131868131868
1650545850843.117,278.742086992036,1655.6776556776556
1650545850869.573,278.742086992036,1632.9670329670328
1650545850872.001,278.742086992036,1605.128205128205
1650545850902.119,278.62829148805884,1575.8241758241757
1650545850902.302,278.51458885941645,1546.5201465201465
1650545850903.368,278.62829148805884,1517.216117216117
1650545850906.981,278.51458885941645,1492.3076923076922
1650545850908.134,278.51458885941645,1466.6666666666665
1650545850914.281,278.40097899245364,1448.3516483516482
1650545850914.446,278.40097899245364,1432.2344322344322
1650545850943.5688,278.40097899245364,1419.7802197802198
1650545850944.4202,278.40097899245364,1410.989010989011
1650545850944.7131,278.28746177370033,1408.058608058608
1650545850956.998,278.28746177370033,1407.3260073260071
1650545850958.1658,278.28746177370033,1405.128205128205
1650545850966.815,278.17403708987166,1403.6630036630036
1650545850966.979,278.0607048278672,1404.3956043956043
1650545850992.009,278.17403708987166,1405.128205128205
1650545850993.191,278.17403708987166,1402.197802197802
1650545851015.892,278.0607048278672,1399.2673992673992
1650545851016.1418,277.8343171178506,1397.8021978021977
1650545851017.831,277.94746487477096,1396.3369963369962
1650545851018.3352,277.94746487477096,1394.8717948717947
1650545851032.034,277.94746487477096,1395.6043956043954
1650545851063.144,277.7212614445575,1397.069597069597
1650545851063.3188,277.8343171178506,1399.2673992673992
1650545851064.49,277.8343171178506,1398.5347985347985
1650545851076.983,277.7212614445575,1400.7326007326005
1650545851077.193,277.7212614445575,1402.9304029304028
1650545851078.339,277.7212614445575,1406.5934065934066
1650545851079.5159,277.7212614445575,1408.7912087912086
1650545851093.28,277.60829774252596,1411.7216117216117
1650545851123.217,277.4954258995731,1413.9194139194137
1650545851123.471,277.4954258995731,1413.9194139194137
1650545851145.8071,277.4954258995731,1413.9194139194137
1650545851146.902,277.4954258995731,1413.9194139194137
1650545851147.041,277.2699573430835,1411.7216117216117
1650545851148.269,277.2699573430835,1408.7912087912086
1650545851153.166,277.2699573430835,1403.6630036630036
1650545851153.313,277.38264580369844,1397.069597069597
1650545851180.9841,277.1573604060914,1389.7435897435896
1650545851182.2742,277.1573604060914,1382.4175824175823
1650545851199.485,277.1573604060914,1375.091575091575
1650545851199.682,277.1573604060914,1367.7655677655678
1650545851200.815,277.04485488126653,1360.4395604395604
1650545851202.156,277.1573604060914,1352.3809523809523
1650545851203.303,277.04485488126653,1342.1245421245421
1650545851230.85,276.8201176232002,1333.3333333333333
1650545851231.953,276.93244065733415,1323.8095238095236
1650545851232.111,276.93244065733415,1315.7509157509157
1650545851258.528,276.8201176232002,1307.6923076923076
1650545851259.5898,276.8201176232002,1301.8315018315018
1650545851259.77,276.5957446808511,1298.168498168498
1650545851269.65,276.70788566795056,1294.5054945054944
1650545851270.8472,276.70788566795056,1296.7032967032967
1650545851295.85,276.5957446808511,1298.168498168498
1650545851296.082,276.483694551347,1303.2967032967033
1650545851297.29,276.5957446808511,1308.4249084249084
1650545851318.388,276.483694551347,1312.087912087912
1650545851319.512,276.483694551347,1313.5531135531135
1650545851319.667,276.3717351690626,1315.7509157509157
1650545851320.882,276.483694551347,1315.7509157509157
1650545851334.832,276.3717351690626,1316.4835164835165
1650545851363.3608,276.3717351690626,1315.7509157509157
1650545851363.697,276.2598664238009,1314.2857142857142
1650545851364.7202,276.2598664238009,1309.89010989011
1650545851378.561,276.1480882055432,1306.227106227106
1650545851379.643,276.1480882055432,1303.2967032967033
1650545851379.8079,276.03640040444895,1305.4945054945053
1650545851381.003,276.03640040444895,1308.4249084249084
1650545851394.6992,275.9248029108551,1312.8205128205127
1650545851422.113,276.03640040444895,1315.018315018315
1650545851422.2878,275.9248029108551,1317.216117216117
1650545851423.438,275.9248029108551,1317.216117216117
1650545851440.939,275.9248029108551,1315.018315018315
1650545851442.173,275.8132956152758,1314.2857142857142
1650545851442.427,275.7018784084023,1313.5531135531135
1650545851443.562,275.8132956152758,1313.5531135531135
1650545851473.531,275.59055118110234,1312.087912087912
1650545851474.8918,275.7018784084023,1309.1575091575091
1650545851499.6382,275.47931382441976,1306.9597069597069
1650545851499.806,275.7018784084023,1303.2967032967033
1650545851500.9539,275.47931382441976,1300.3663003663003
1650545851502.084,275.59055118110234,1298.9010989010987
1650545851502.2039,275.3681662295743,1300.3663003663003
1650545851511.002,275.47931382441976,1301.8315018315018
1650545851538.508,275.47931382441976,1303.2967032967033
1650545851539.738,275.47931382441976,1304.0293040293038
1650545851558.705,275.3681662295743,1306.227106227106
1650545851558.938,275.3681662295743,1308.4249084249084
1650545851559.752,275.3681662295743,1307.6923076923076
1650545851560.862,275.3681662295743,1306.9597069597069
1650545851560.942,275.14613989115094,1306.227106227106
1650545851574.804,275.14613989115094,1301.8315018315018
1650545851601.076,275.2571082879613,1298.168498168498
1650545851618.56,275.03526093088857,1294.5054945054944
1650545851619.704,275.03526093088857,1289.3772893772893
1650545851619.883,275.03526093088857,1282.051282051282
1650545851621.034,274.9244712990936,1277.6556776556777
1650545851622.169,275.03526093088857,1274.7252747252746
1650545851622.315,274.9244712990936,1273.9926739926739
1650545851647.388,274.9244712990936,1272.5274725274724
1650545851648.545,274.9244712990936,1271.7948717948716
1650545851673.635,274.9244712990936,1271.062271062271
1650545851674.726,274.7031595894546,1273.9926739926739
1650545851674.86,274.9244712990936,1276.923076923077
1650545851689.825,274.81377088785985,1279.8534798534797
1650545851690.9512,274.81377088785985,1283.5164835164835
1650545851691.119,274.5926372963186,1287.9120879120878
1650545851716.229,274.7031595894546,1293.7728937728937
1650545851717.4429,274.7031595894546,1301.8315018315018
1650545851741.159,274.7031595894546,1313.5531135531135
1650545851742.2332,274.5926372963186,1331.8681318681317
1650545851742.351,274.5926372963186,1356.0439560439559
1650545851743.6162,274.5926372963186,1386.080586080586
1650545851769.823,274.5926372963186,1423.4432234432234
1650545851770.059,274.3718592964824,1466.6666666666665
1650545851771.1501,274.4822039010657,1512.087912087912
1650545851800.001,274.4822039010657,1558.2417582417581
1650545851801.283,274.4822039010657,1602.9304029304028
1650545851801.5251,274.3718592964824,1646.8864468864467
1650545851804.935,274.4822039010657,1683.5164835164835
1650545851806.144,274.3718592964824,1710.6227106227104
1650545851807.27,274.2616033755274,1727.4725274725274
1650545851807.4392,274.15143603133157,1734.7985347985348
1650545851833.771,274.2616033755274,1729.6703296703295
1650545851835.0042,274.2616033755274,1714.2857142857142
1650545851861.177,274.15143603133157,1691.5750915750914
1650545851862.3928,274.0413571571973,1663.7362637362637
1650545851862.643,274.2616033755274,1630.03663003663
1650545851863.78,274.15143603133157,1590.4761904761904
1650545851888.618,274.15143603133157,1550.9157509157508
1650545851888.822,274.0413571571973,1515.018315018315
1650545851889.944,274.15143603133157,1482.7838827838827
1650545851918.8398,274.0413571571973,1455.6776556776556
1650545851920.9148,274.0413571571973,1433.6996336996335
1650545851921.139,273.8214643931795,1419.047619047619
1650545851922.55,273.9313666465984,1410.989010989011
1650545851928.731,273.9313666465984,1408.058608058608
1650545851956.196,273.9313666465984,1409.5238095238094
1650545851956.4841,273.8214643931795,1413.1868131868132
1650545851957.746,273.9313666465984,1417.5824175824175
1650545851978.755,273.8214643931795,1422.7106227106226
1650545851979.943,273.8214643931795,1422.7106227106226
1650545851980.357,273.7116502907559,1420.5128205128203
1650545851981.25,273.9313666465984,1419.7802197802198
1650545851989.9968,273.8214643931795,1418.3150183150183
1650545852017.427,273.7116502907559,1416.8498168498168
1650545852017.617,273.7116502907559,1414.6520146520145
1650545852018.761,273.8214643931795,1415.3846153846152
1650545852041.365,273.7116502907559,1417.5824175824175
1650545852042.677,273.7116502907559,1420.5128205128203
1650545852043.719,273.492286115007,1423.4432234432234
1650545852043.9392,273.60192423331324,1427.106227106227
1650545852053.966,273.60192423331324,1428.5714285714284
1650545852078.829,273.492286115007,1431.5018315018315
1650545852079.0679,273.3827358301622,1432.9670329670328
1650545852080.099,273.60192423331324,1436.6300366300366
1650545852103.871,273.492286115007,1440.2930402930401
1650545852105.07,273.492286115007,1441.0256410256409
1650545852106.2542,273.3827358301622,1442.4908424908424
1650545852106.505,273.492286115007,1441.7582417582416
1650545852133.8389,273.3827358301622,1437.3626373626373
1650545852134.99,273.2732732732733,1432.9670329670328
1650545852135.185,273.2732732732733,1426.3736263736262
1650545852158.8389,273.3827358301622,1419.047619047619
1650545852160.0598,273.3827358301622,1410.2564102564102
1650545852161.19,273.2732732732733,1399.2673992673992
1650545852161.345,273.16389833900337,1386.8131868131868
1650545852167.656,273.2732732732733,1374.3589743589744
1650545852196.357,273.0546109221844,1363.3699633699632
1650545852197.47,273.16389833900337,1350.18315018315
1650545852197.651,273.16389833900337,1341.3919413919414
1650545852221.3992,273.16389833900337,1331.8681318681317
1650545852222.6938,273.16389833900337,1326.007326007326
1650545852223.738,273.0546109221844,1323.076923076923
1650545852223.907,273.0546109221844,1322.3443223443223
1650545852250.329,273.0546109221844,1321.6117216117216
1650545852251.502,272.9454109178164,1320.8791208791208
1650545852278.815,273.0546109221844,1316.4835164835165
1650545852279.0698,272.9454109178164,1315.018315018315
1650545852280.227,273.0546109221844,1313.5531135531135
1650545852287.24,273.0546109221844,1312.8205128205127
1650545852287.556,272.9454109178164,1312.087912087912
1650545852287.739,272.83629822106735,1314.2857142857142
1650545852288.869,272.9454109178164,1314.2857142857142
1650545852315.158,272.7272727272727,1315.018315018315
1650545852316.298,272.9454109178164,1314.2857142857142
1650545852316.48,272.83629822106735,1312.8205128205127
1650545852341.406,272.83629822106735,1311.3553113553112
1650545852342.852,272.83629822106735,1311.3553113553112
1650545852343.8772,272.83629822106735,1312.087912087912
1650545852352.5989,272.6183343319353,1315.018315018315
1650545852352.8298,272.7272727272727,1315.018315018315
1650545852387.782,272.83629822106735,1314.2857142857142
1650545852388.793,272.83629822106735,1312.087912087912
1650545852388.959,272.6183343319353,1310.6227106227104
1650545852397.739,272.7272727272727,1308.4249084249084
1650545852398.8992,272.83629822106735,1306.227106227106
1650545852405.178,272.5094829307247,1304.7619047619046
1650545852431.343,272.6183343319353,1304.7619047619046
1650545852431.524,272.7272727272727,1304.0293040293038
1650545852432.76,272.7272727272727,1304.0293040293038
1650545852457.628,272.7272727272727,1303.2967032967033
1650545852457.863,272.6183343319353,1301.8315018315018
1650545852458.951,272.6183343319353,1300.3663003663003
1650545852461.4639,272.6183343319353,1298.9010989010987
1650545852470.112,272.6183343319353,1294.5054945054944
1650545852470.283,272.40071841947713,1291.5750915750914
1650545852495.239,272.6183343319353,1292.3076923076922
1650545852496.5159,272.6183343319353,1295.970695970696
1650545852520.162,272.6183343319353,1300.3663003663003
1650545852520.46,272.5094829307247,1304.7619047619046
1650545852521.507,272.6183343319353,1307.6923076923076
1650545852522.804,272.5094829307247,1310.6227106227104
1650545852531.396,272.5094829307247,1312.087912087912
1650545852531.594,272.40071841947713,1312.087912087912
1650545852560.2678,272.5094829307247,1308.4249084249084
1650545852561.511,272.5094829307247,1304.0293040293038
1650545852577.638,272.40071841947713,1301.098901098901
1650545852577.81,272.29204069419507,1297.4358974358975
1650545852579.0151,272.40071841947713,1295.970695970696
1650545852580.2651,272.40071841947713,1294.5054945054944
1650545852594.196,272.40071841947713,1290.8424908424909
1650545852621.4312,272.29204069419507,1287.9120879120878
1650545852621.629,272.29204069419507,1284.9816849816848
1650545852622.8389,272.40071841947713,1282.051282051282
1650545852648.9912,272.40071841947713,1280.5860805860805
1650545852649.184,272.1834496510468,1280.5860805860805
1650545852650.458,272.29204069419507,1279.8534798534797
1650545852651.654,272.29204069419507,1279.120879120879
1650545852652.872,272.40071841947713,1282.7838827838827
1650545852682.7869,272.1834496510468,1289.3772893772893
1650545852683.018,272.29204069419507,1303.2967032967033
1650545852684.0488,272.29204069419507,1324.5421245421244
1650545852697.704,272.29204069419507,1350.9157509157508
1650545852697.878,272.1834496510468,1383.8827838827838
1650545852699.059,272.29204069419507,1422.7106227106226
1650545852712.922,272.29204069419507,1469.5970695970695
1650545852714.066,272.1834496510468,1519.4139194139193
1650545852714.2341,272.1834496510468,1570.6959706959706
1650545852747.997,272.07494518636634,1616.117216117216
1650545852749.176,272.1834496510468,1654.9450549450548
1650545852756.495,272.1834496510468,1684.249084249084
1650545852756.671,272.07494518636634,1701.8315018315018
1650545852757.896,272.1834496510468,1704.7619047619046
1650545852771.6118,272.1834496510468,1695.2380952380952
1650545852801.697,272.1834496510468,1674.7252747252746
1650545852802.763,272.07494518636634,1650.5494505494505
1650545852802.9521,272.07494518636634,1621.9780219780218
1650545852821.6108,272.07494518636634,1589.0109890109889
1650545852822.7388,272.07494518636634,1556.7765567765566
1650545852822.9092,271.9665271966527,1525.2747252747251
1650545852824.138,271.9665271966527,1498.168498168498
1650545852833.025,272.07494518636634,1473.260073260073
1650545852859.0742,272.07494518636634,1452.014652014652
1650545852859.246,271.9665271966527,1431.5018315018315
1650545852880.429,271.9665271966527,1413.1868131868132
1650545852881.765,272.07494518636634,1400.0
1650545852882.773,272.1834496510468,1389.0109890109889
1650545852882.932,271.9665271966527,1382.4175824175823
1650545852884.133,271.9665271966527,1377.2893772893772
1650545852915.425,271.74995022894683,1375.091575091575
1650545852916.645,272.07494518636634,1369.9633699633698
1650545852941.77,271.9665271966527,1366.3003663003662
1650545852942.006,271.9665271966527,1362.6373626373625
1650545852943.11,271.9665271966527,1357.5091575091574
1650545852944.078,272.07494518636634,1355.3113553113553
1650545852944.309,271.9665271966527,1356.7765567765566
1650545852945.417,271.9665271966527,1361.1721611721612
1650545852978.094,271.74995022894683,1367.032967032967
1650545852979.2112,271.9665271966527,1376.5567765567764
1650545852997.832,271.85819557856996,1391.2087912087911
1650545852998.023,271.85819557856996,1403.6630036630036
1650545852999.2249,271.9665271966527,1415.3846153846152
1650545853000.318,271.9665271966527,1424.9084249084249
1650545853000.481,271.74995022894683,1434.4322344322343
1650545853025.48,271.85819557856996,1440.2930402930401
1650545853026.688,271.9665271966527,1443.2234432234432
1650545853055.482,271.9665271966527,1443.2234432234432
1650545853056.571,271.74995022894683,1443.2234432234432
1650545853056.715,271.85819557856996,1438.8278388278388
1650545853063.0479,271.9665271966527,1430.03663003663
1650545853064.0818,271.9665271966527,1418.3150183150183
1650545853064.227,271.74995022894683,1404.3956043956043
1650545853091.738,271.85819557856996,1389.0109890109889
1650545853093.036,271.9665271966527,1375.091575091575
1650545853121.7861,271.85819557856996,1364.102564102564
1650545853122.9082,271.74995022894683,1356.0439560439559
1650545853123.106,271.85819557856996,1347.2527472527472
1650545853126.73,271.85819557856996,1338.4615384615383
1650545853127.8591,271.74995022894683,1333.3333333333333
1650545853128.0068,271.74995022894683,1327.4725274725274
1650545853154.282,271.74995022894683,1321.6117216117216
1650545853155.488,271.85819557856996,1318.6813186813185
1650545853181.884,271.85819557856996,1316.4835164835165
1650545853183.0498,271.74995022894683,1314.2857142857142
1650545853183.314,271.74995022894683,1311.3553113553112
1650545853185.731,271.85819557856996,1306.9597069597069
1650545853186.77,271.74995022894683,1304.0293040293038
1650545853187.249,271.6417910447761,1302.5641025641025
1650545853211.7852,271.74995022894683,1301.098901098901
1650545853213.041,271.74995022894683,1301.098901098901
1650545853236.824,271.85819557856996,1301.098901098901
1650545853237.886,271.6417910447761,1301.8315018315018
1650545853238.048,271.74995022894683,1301.098901098901
1650545853239.264,271.85819557856996,1300.3663003663003
1650545853252.917,271.74995022894683,1298.9010989010987
1650545853253.07,271.6417910447761,1298.168498168498
1650545853283.129,271.74995022894683,1299.6336996336995
1650545853284.2878,271.74995022894683,1302.5641025641025
1650545853298.006,271.74995022894683,1305.4945054945053
1650545853298.187,271.6417910447761,1308.4249084249084
1650545853299.2808,271.6417910447761,1308.4249084249084
1650545853305.5962,271.6417910447761,1308.4249084249084
1650545853340.461,271.74995022894683,1308.4249084249084
1650545853340.6428,271.6417910447761,1308.4249084249084
1650545853341.801,271.74995022894683,1306.9597069597069
1650545853361.8318,271.6417910447761,1305.4945054945053
1650545853362.937,271.74995022894683,1303.2967032967033
1650545853363.101,271.5337179232146,1301.098901098901
1650545853364.29,271.6417910447761,1298.168498168498
1650545853365.611,271.6417910447761,1294.5054945054944
1650545853392.994,271.6417910447761,1290.10989010989
1650545853393.1738,271.5337179232146,1287.179487179487
1650545853394.319,271.5337179232146,1284.2490842490843
1650545853418.3271,271.6417910447761,1282.7838827838827
1650545853420.222,271.6417910447761,1284.2490842490843
1650545853420.523,271.5337179232146,1285.7142857142856
1650545853420.778,271.5337179232146,1286.4468864468863
1650545853426.845,271.6417910447761,1286.4468864468863
1650545853451.815,271.4257307615828,1289.3772893772893
1650545853451.992,271.5337179232146,1292.3076923076922
1650545853453.249,271.6417910447761,1294.5054945054944
1650545853480.622,271.6417910447761,1297.4358974358975
1650545853481.729,271.6417910447761,1298.9010989010987
1650545853481.9082,271.5337179232146,1298.9010989010987
1650545853486.876,271.5337179232146,1295.970695970696
1650545853488.228,271.6417910447761,1292.3076923076922
1650545853513.019,271.5337179232146,1291.5750915750914
1650545853513.18,271.5337179232146,1289.3772893772893
1650545853514.356,271.5337179232146,1286.4468864468863
1650545853539.386,271.6417910447761,1282.051282051282
1650545853540.658,271.5337179232146,1276.923076923077
1650545853543.005,271.5337179232146,1271.062271062271
1650545853543.153,271.6417910447761,1265.2014652014652
1650545853551.891,271.6417910447761,1261.5384615384614
1650545853580.542,271.74995022894683,1260.07326007326
1650545853580.7231,271.6417910447761,1261.5384615384614
1650545853581.877,271.6417910447761,1263.003663003663
1650545853599.538,271.6417910447761,1263.7362637362637
1650545853600.716,271.6417910447761,1263.003663003663
1650545853601.014,271.5337179232146,1264.4688644688645
1650545853601.951,271.6417910447761,1264.4688644688645
1650545853630.763,271.4257307615828,1268.131868131868
1650545853631.806,271.6417910447761,1274.7252747252746
1650545853631.9958,271.5337179232146,1287.179487179487
1650545853656.93,271.6417910447761,1306.227106227106
1650545853658.249,271.5337179232146,1336.263736263736
1650545853670.788,271.6417910447761,1375.091575091575
1650545853671.818,271.5337179232146,1421.245421245421
1650545853671.98,271.6417910447761,1474.7252747252746
1650545853673.2358,271.74995022894683,1531.135531135531
1650545853698.156,271.74995022894683,1590.4761904761904
1650545853698.335,271.5337179232146,1647.6190476190475
1650545853699.408,271.6417910447761,1698.168498168498
1650545853720.725,271.6417910447761,1739.194139194139
1650545853725.565,271.74995022894683,1768.4981684981683
1650545853725.7239,271.6417910447761,1784.6153846153845
1650545853734.453,271.6417910447761,1788.278388278388
1650545853764.4639,271.85819557856996,1779.4871794871794
1650545853765.576,271.85819557856996,1758.974358974359
1650545853765.853,271.74995022894683,1731.135531135531
1650545853780.856,271.74995022894683,1694.5054945054944
1650545853782.047,271.85819557856996,1652.7472527472526
1650545853783.163,271.85819557856996,1613.186813186813
1650545853783.4019,271.6417910447761,1576.5567765567764
1650545853818.308,271.74995022894683,1541.3919413919414
1650545853819.4648,271.85819557856996,1512.087912087912
1650545853837.6328,271.85819557856996,1487.9120879120878
1650545853837.888,271.74995022894683,1468.8644688644688
1650545853838.361,271.74995022894683,1453.4798534798533
1650545853839.449,271.6417910447761,1444.6886446886447
1650545853840.693,271.85819557856996,1438.8278388278388
1650545853854.417,271.74995022894683,1438.095238095238
1650545853854.656,271.9665271966527,1438.8278388278388
1650545853883.33,271.85819557856996,1439.5604395604394
1650545853884.46,271.9665271966527,1440.2930402930401
1650545853884.695,271.85819557856996,1439.5604395604394
1650545853900.838,271.85819557856996,1438.8278388278388
1650545853902.044,271.9665271966527,1437.3626373626373
1650545853903.333,271.9665271966527,1435.164835164835
1650545853935.748,271.85819557856996,1432.9670329670328
1650545853936.27,271.9665271966527,1431.5018315018315
1650545853937.042,271.9665271966527,1426.3736263736262
1650545853964.4211,272.07494518636634,1422.7106227106226
1650545853964.667,271.9665271966527,1421.245421245421
1650545853965.908,271.9665271966527,1420.5128205128203
1650545853967.179,272.07494518636634,1421.245421245421
1650545853968.511,272.07494518636634,1423.4432234432234
1650545853995.699,271.9665271966527,1426.3736263736262
1650545853995.921,272.07494518636634,1428.5714285714284
1650545853997.0579,272.1834496510468,1431.5018315018315
1650545854016.9849,272.07494518636634,1434.4322344322343
1650545854017.196,272.07494518636634,1435.8974358974358
1650545854018.4888,272.07494518636634,1436.6300366300366
1650545854019.574,272.07494518636634,1434.4322344322343
1650545854033.3828,272.1834496510468,1430.7692307692307
1650545854063.192,272.07494518636634,1427.8388278388277
1650545854063.526,272.1834496510468,1421.9780219780218
1650545854064.5298,272.1834496510468,1416.117216117216
1650545854079.57,272.29204069419507,1408.7912087912086
1650545854079.839,272.1834496510468,1402.197802197802
1650545854080.859,272.1834496510468,1392.6739926739926
1650545854082.114,272.29204069419507,1382.4175824175823
1650545854095.699,272.1834496510468,1373.6263736263736
1650545854095.888,272.1834496510468,1366.3003663003662
1650545854122.0989,272.1834496510468,1357.5091575091574
1650545854123.3809,272.29204069419507,1350.18315018315
1650545854141.984,272.40071841947713,1342.1245421245421
1650545854142.15,272.1834496510468,1335.5311355311355
1650545854142.264,272.29204069419507,1330.4029304029302
1650545854143.382,272.40071841947713,1328.2051282051282
1650545854168.235,272.40071841947713,1326.7399267399267
1650545854168.4211,272.40071841947713,1323.8095238095236
1650545854169.576,272.29204069419507,1320.8791208791208
1650545854195.833,272.40071841947713,1317.9487179487178
1650545854196.9658,272.1834496510468,1315.018315018315
1650545854197.125,272.40071841947713,1312.087912087912
1650545854207.091,272.40071841947713,1309.89010989011
1650545854208.39,272.40071841947713,1307.6923076923076
1650545854233.239,272.5094829307247,1306.9597069597069
1650545854233.408,272.29204069419507,1309.89010989011
1650545854234.577,272.40071841947713,1309.1575091575091
1650545854260.884,272.5094829307247,1306.9597069597069
1650545854261.973,272.5094829307247,1304.7619047619046
1650545854262.1108,272.40071841947713,1304.0293040293038
1650545854267.101,272.5094829307247,1302.5641025641025
1650545854268.404,272.5094829307247,1305.4945054945053
1650545854299.5999,272.5094829307247,1309.89010989011
1650545854299.8281,272.5094829307247,1315.018315018315
1650545854301.031,272.6183343319353,1318.6813186813185
1650545854318.458,272.6183343319353,1320.14652014652
1650545854319.573,272.6183343319353,1317.216117216117
1650545854319.797,272.5094829307247,1312.8205128205127
1650545854320.853,272.6183343319353,1309.1575091575091
1650545854334.676,272.5094829307247,1306.9597069597069
1650545854362.173,272.7272727272727,1306.227106227106
1650545854378.388,272.6183343319353,1307.6923076923076
1650545854378.587,272.6183343319353,1305.4945054945053
1650545854379.707,272.6183343319353,1303.2967032967033
1650545854380.79,272.7272727272727,1299.6336996336995
1650545854380.979,272.6183343319353,1295.2380952380952
1650545854389.658,272.7272727272727,1289.3772893772893
1650545854395.904,272.6183343319353,1285.7142857142856
1650545854422.0322,272.7272727272727,1282.051282051282
1650545854422.205,272.7272727272727,1282.051282051282
1650545854423.455,272.7272727272727,1278.3882783882782
1650545854440.886,272.83629822106735,1277.6556776556777
1650545854442.017,272.83629822106735,1276.1904761904761
1650545854442.1958,272.7272727272727,1274.7252747252746
1650545854448.4812,272.7272727272727,1273.9926739926739
1650545854477.173,272.7272727272727,1272.5274725274724
1650545854478.2969,272.9454109178164,1271.7948717948716
1650545854478.473,272.7272727272727,1268.8644688644688
1650545854503.491,272.83629822106735,1265.9340659340658
1650545854504.629,272.83629822106735,1265.2014652014652
1650545854505.77,272.9454109178164,1266.6666666666665
1650545854505.923,272.83629822106735,1268.131868131868
1650545854507.19,272.83629822106735,1268.131868131868
1650545854537.178,272.83629822106735,1268.131868131868
1650545854538.4941,273.0546109221844,1265.9340659340658
1650545854563.47,272.9454109178164,1263.7362637362637
1650545854563.883,272.9454109178164,1263.7362637362637
1650545854564.7559,272.83629822106735,1265.9340659340658
1650545854565.823,273.0546109221844,1268.131868131868
1650545854565.956,272.9454109178164,1272.5274725274724
1650545854575.948,273.0546109221844,1273.9926739926739
1650545854602.3728,272.83629822106735,1278.3882783882782
1650545854603.516,272.9454109178164,1278.3882783882782
1650545854617.086,273.0546109221844,1279.120879120879
1650545854617.2769,273.0546109221844,1283.5164835164835
1650545854618.54,273.16389833900337,1287.9120879120878
1650545854624.5452,273.16389833900337,1288.6446886446886
1650545854624.716,273.0546109221844,1287.9120879120878
1650545854649.823,273.16389833900337,1284.9816849816848
1650545854651.0552,273.2732732732733,1282.051282051282
1650545854675.947,273.2732732732733,1279.8534798534797
1650545854677.0781,273.0546109221844,1277.6556776556777
1650545854677.272,273.16389833900337,1274.7252747252746
1650545854689.748,273.2732732732733,1273.9926739926739
1650545854690.814,273.2732732732733,1272.5274725274724
1650545854690.948,273.16389833900337,1273.9926739926739
1650545854719.851,273.16389833900337,1279.8534798534797
1650545854721.92,273.2732732732733,1287.9120879120878
1650545854742.2231,273.2732732732733,1303.2967032967033
1650545854743.315,273.2732732732733,1327.4725274725274
1650545854743.429,273.2732732732733,1360.4395604395604
1650545854744.679,273.2732732732733,1401.4652014652013
1650545854753.341,273.3827358301622,1450.5494505494505
1650545854753.4949,273.2732732732733,1506.227106227106
1650545854780.99,273.492286115007,1564.8351648351647
1650545854782.2039,273.492286115007,1624.9084249084249
1650545854799.7588,273.3827358301622,1680.5860805860805
1650545854800.112,273.2732732732733,1730.4029304029302
1650545854801.01,273.3827358301622,1768.4981684981683
1650545854802.212,273.3827358301622,1793.4065934065932
1650545854815.875,273.492286115007,1803.6630036630036
1650545854816.0479,273.3827358301622,1800.7326007326005
1650545854848.582,273.60192423331324,1784.6153846153845
1650545854849.7332,273.60192423331324,1760.4395604395604
1650545854859.631,273.60192423331324,1728.937728937729
1650545854859.782,273.492286115007,1694.5054945054944
1650545854860.9321,273.492286115007,1656.4102564102564
1650545854866.163,273.492286115007,1618.3150183150183
1650545854904.659,273.60192423331324,1580.9523809523807
1650545854904.847,273.492286115007,1546.5201465201465
1650545854905.966,273.7116502907559,1515.018315018315
1650545854914.8901,273.7116502907559,1487.179487179487
1650545854916.011,273.7116502907559,1463.7362637362637
1650545854918.484,273.492286115007,1447.6190476190475
1650545854918.728,273.7116502907559,1435.164835164835
1650545854927.28,273.8214643931795,1426.3736263736262
1650545854954.692,273.8214643931795,1422.7106227106226
1650545854954.883,273.60192423331324,1423.4432234432234
1650545854956.003,273.7116502907559,1428.5714285714284
1650545854979.784,273.8214643931795,1432.9670329670328
1650545854982.1812,273.8214643931795,1436.6300366300366
1650545854982.338,273.7116502907559,1441.0256410256409
1650545854983.689,273.8214643931795,1444.6886446886447
1650545854992.303,273.8214643931795,1446.8864468864467
1650545855017.193,273.9313666465984,1447.6190476190475
1650545855017.375,273.8214643931795,1446.153846153846
1650545855018.5088,273.8214643931795,1443.956043956044
1650545855043.677,273.9313666465984,1443.956043956044
1650545855044.7942,273.9313666465984,1446.153846153846
1650545855044.948,273.8214643931795,1450.5494505494505
1650545855046.093,273.9313666465984,1454.9450549450548
1650545855054.81,273.9313666465984,1457.8754578754579
1650545855087.32,273.9313666465984,1460.8058608058607
1650545855087.826,273.9313666465984,1462.2710622710622
1650545855088.5469,273.9313666465984,1460.07326007326
1650545855099.792,274.0413571571973,1457.8754578754579
1650545855101.032,274.0413571571973,1454.212454212454
1650545855102.178,273.9313666465984,1450.5494505494505
1650545855102.337,273.9313666465984,1444.6886446886447
1650545855116.559,273.8214643931795,1439.5604395604394
1650545855142.24,274.15143603133157,1431.5018315018315
1650545855142.477,274.0413571571973,1422.7106227106226
1650545855143.6018,274.0413571571973,1413.9194139194137
1650545855161.0552,274.0413571571973,1405.8608058608058
1650545855162.291,274.15143603133157,1397.8021978021977
1650545855163.432,274.0413571571973,1390.4761904761904
1650545855163.5881,274.0413571571973,1380.952380952381
1650545855188.594,273.9313666465984,1372.8937728937728
1650545855189.778,274.15143603133157,1363.3699633699632
1650545855189.975,273.9313666465984,1354.5787545787546
1650545855219.913,274.15143603133157,1346.5201465201465
1650545855221.271,274.2616033755274,1339.194139194139
1650545855224.834,274.2616033755274,1330.4029304029302
1650545855256.0142,274.0413571571973,1324.5421245421244
1650545855256.2039,274.2616033755274,1320.14652014652
1650545855257.293,274.0413571571973,1317.216117216117
1650545855282.2249,274.3718592964824,1312.8205128205127
1650545855282.417,274.15143603133157,1309.1575091575091
1650545855283.5579,274.2616033755274,1306.227106227106
1650545855284.807,274.15143603133157,1306.227106227106
1650545855286.0552,274.2616033755274,1308.4249084249084
1650545855312.742,274.15143603133157,1312.8205128205127
1650545855312.96,274.2616033755274,1318.6813186813185
1650545855350.741,274.2616033755274,1321.6117216117216
1650545855350.874,274.3718592964824,1323.8095238095236
1650545855350.942,274.2616033755274,1323.076923076923
1650545855351.0,274.2616033755274,1320.8791208791208
1650545855351.0571,274.3718592964824,1319.4139194139193
1650545855351.115,274.3718592964824,1317.216117216117
1650545855353.5,274.2616033755274,1317.216117216117
1650545855353.693,274.3718592964824,1315.7509157509157
1650545855381.102,274.3718592964824,1316.4835164835165
1650545855382.199,274.3718592964824,1317.216117216117
1650545855382.3308,274.3718592964824,1320.14652014652
1650545855401.0889,274.3718592964824,1321.6117216117216
1650545855402.311,274.15143603133157,1322.3443223443223
1650545855403.5498,274.4822039010657,1318.6813186813185
1650545855428.501,274.3718592964824,1315.018315018315
1650545855428.694,274.4822039010657,1311.3553113553112
1650545855429.823,274.4822039010657,1306.9597069597069
1650545855462.259,274.4822039010657,1304.0293040293038
1650545855462.46,274.3718592964824,1298.168498168498
1650545855463.578,274.3718592964824,1292.3076923076922
1650545855464.8162,274.4822039010657,1287.179487179487
1650545855466.0708,274.4822039010657,1286.4468864468863
1650545855491.008,274.3718592964824,1284.9816849816848
1650545855491.18,274.4822039010657,1285.7142857142856
1650545855492.338,274.4822039010657,1287.179487179487
1650545855516.106,274.5926372963186,1287.179487179487
1650545855516.357,274.4822039010657,1287.9120879120878
1650545855517.394,274.4822039010657,1287.179487179487
1650545855518.71,274.5926372963186,1287.179487179487
1650545855532.365,274.5926372963186,1284.9816849816848
1650545855557.273,274.4822039010657,1282.7838827838827
1650545855557.6028,274.4822039010657,1279.120879120879
1650545855558.6519,274.7031595894546,1276.923076923077
1650545855582.253,274.5926372963186,1277.6556776556777
1650545855582.456,274.4822039010657,1279.8534798534797
1650545855583.604,274.5926372963186,1282.051282051282
1650545855584.873,274.7031595894546,1286.4468864468863
1650545855593.553,274.7031595894546,1288.6446886446886
1650545855593.7358,274.5926372963186,1290.10989010989
1650545855621.1309,274.5926372963186,1288.6446886446886
1650545855622.355,274.7031595894546,1287.179487179487
1650545855639.789,274.7031595894546,1285.7142857142856
1650545855639.97,274.7031595894546,1285.7142857142856
1650545855641.103,274.7031595894546,1285.7142857142856
1650545855642.3481,274.7031595894546,1286.4468864468863
1650545855656.006,274.81377088785985,1284.9816849816848
1650545855684.85,274.7031595894546,1284.9816849816848
1650545855685.095,274.7031595894546,1280.5860805860805
1650545855686.2112,274.81377088785985,1276.923076923077
1650545855703.5388,274.81377088785985,1273.260073260073
1650545855703.728,274.7031595894546,1271.7948717948716
1650545855704.864,274.7031595894546,1271.7948717948716
1650545855706.157,274.81377088785985,1274.7252747252746
1650545855737.425,274.81377088785985,1279.120879120879
1650545855738.492,274.7031595894546,1281.3186813186812
1650545855738.621,274.7031595894546,1283.5164835164835
1650545855756.143,274.9244712990936,1284.9816849816848
1650545855757.3608,274.9244712990936,1286.4468864468863
1650545855757.679,274.7031595894546,1287.9120879120878
1650545855758.641,274.81377088785985,1287.9120879120878
1650545855772.42,274.7031595894546,1290.10989010989
1650545855797.3262,274.9244712990936,1295.970695970696
1650545855797.653,274.81377088785985,1308.4249084249084
1650545855798.6392,274.9244712990936,1328.937728937729
1650545855822.297,274.9244712990936,1357.5091575091574
1650545855822.5132,275.03526093088857,1395.6043956043954
1650545855823.62,274.9244712990936,1439.5604395604394
1650545855824.869,274.9244712990936,1488.6446886446886
1650545855851.165,275.03526093088857,1542.8571428571427
1650545855852.282,275.03526093088857,1599.2673992673992
1650545855852.438,274.9244712990936,1655.6776556776556
1650545855878.656,274.9244712990936,1704.0293040293038
1650545855879.071,274.9244712990936,1745.7875457875457
1650545855882.469,275.03526093088857,1771.4285714285713
1650545855882.664,274.9244712990936,1786.8131868131868
1650545855883.723,274.9244712990936,1786.8131868131868
1650545855914.997,275.03526093088857,1775.091575091575
1650545855916.2322,275.03526093088857,1751.6483516483515
1650545855946.1812,275.03526093088857,1720.14652014652
1650545855946.6108,274.9244712990936,1682.7838827838827
1650545855947.5042,275.14613989115094,1641.7582417582416
1650545855948.582,275.14613989115094,1600.0
1650545855948.783,275.03526093088857,1560.4395604395604
1650545855950.0662,275.03526093088857,1523.0769230769229
1650545855974.918,275.14613989115094,1490.10989010989
1650545855976.084,275.2571082879613,1460.8058608058607
1650545855976.314,275.14613989115094,1438.8278388278388
1650545856003.681,275.14613989115094,1422.7106227106226
1650545856004.905,274.9244712990936,1413.9194139194137
1650545856006.0251,275.2571082879613,1408.058608058608
1650545856006.168,275.14613989115094,1406.5934065934066
1650545856007.387,275.14613989115094,1405.8608058608058
1650545856048.701,275.14613989115094,1407.3260073260071
1650545856050.034,275.2571082879613,1405.8608058608058
1650545856051.076,275.2571082879613,1402.9304029304028
1650545856051.574,275.2571082879613,1400.0
1650545856061.175,275.2571082879613,1397.069597069597
1650545856062.3281,275.2571082879613,1398.5347985347985
1650545856062.499,275.14613989115094,1397.8021978021977
1650545856076.177,275.2571082879613,1397.069597069597
1650545856101.229,275.2571082879613,1397.069597069597
1650545856102.508,275.14613989115094,1400.0
1650545856117.328,275.14613989115094,1405.128205128205
1650545856117.5288,275.14613989115094,1410.989010989011
1650545856118.658,275.2571082879613,1419.047619047619
1650545856151.095,275.2571082879613,1425.6410256410256
1650545856151.279,275.14613989115094,1431.5018315018315
1650545856152.308,275.14613989115094,1436.6300366300366
1650545856152.465,275.14613989115094,1441.7582417582416
1650545856179.866,275.03526093088857,1445.4212454212454
1650545856180.055,274.9244712990936,1447.6190476190475
1650545856181.185,274.9244712990936,1443.2234432234432
1650545856189.9568,275.03526093088857,1435.164835164835
1650545856191.078,275.03526093088857,1425.6410256410256
1650545856191.314,274.9244712990936,1416.8498168498168
1650545856217.47,274.9244712990936,1409.5238095238094
1650545856218.6812,274.9244712990936,1400.7326007326005
1650545856243.5962,274.9244712990936,1392.6739926739926
1650545856243.778,274.81377088785985,1385.3479853479853
1650545856244.921,274.81377088785985,1378.021978021978
1650545856246.168,274.9244712990936,1368.4981684981683
1650545856247.3171,274.81377088785985,1358.2417582417581
1650545856247.4812,274.81377088785985,1346.5201465201465
1650545856273.699,274.81377088785985,1335.5311355311355
1650545856274.932,274.81377088785985,1326.007326007326
1650545856301.219,274.81377088785985,1319.4139194139193
1650545856302.332,274.7031595894546,1315.018315018315
1650545856302.488,274.7031595894546,1312.8205128205127
1650545856303.6858,274.7031595894546,1310.6227106227104
1650545856329.97,274.7031595894546,1310.6227106227104
1650545856330.205,274.4822039010657,1311.3553113553112
1650545856331.2222,274.7031595894546,1311.3553113553112
1650545856359.9739,274.7031595894546,1310.6227106227104
1650545856361.114,274.7031595894546,1310.6227106227104
1650545856362.343,274.4822039010657,1310.6227106227104
1650545856362.5022,274.7031595894546,1307.6923076923076
1650545856363.7021,274.7031595894546,1304.0293040293038
1650545856393.558,274.7031595894546,1300.3663003663003
1650545856393.825,274.5926372963186,1296.7032967032967
1650545856394.0361,274.5926372963186,1295.2380952380952
1650545856418.711,274.81377088785985,1293.040293040293
1650545856419.8352,274.7031595894546,1293.7728937728937
1650545856420.008,274.5926372963186,1294.5054945054944
1650545856428.7778,274.5926372963186,1293.040293040293
1650545856430.092,274.81377088785985,1293.7728937728937
1650545856459.935,275.03526093088857,1295.970695970696
1650545856460.191,274.9244712990936,1295.970695970696
1650545856461.195,275.03526093088857,1298.168498168498
1650545856482.474,275.03526093088857,1298.9010989010987
1650545856483.764,275.03526093088857,1298.168498168498
1650545856484.8062,274.9244712990936,1295.970695970696
1650545856484.948,274.81377088785985,1294.5054945054944
1650545856493.737,274.9244712990936,1293.040293040293
1650545856521.122,274.5926372963186,1293.040293040293
1650545856521.3188,274.7031595894546,1290.10989010989
1650545856542.529,274.81377088785985,1287.9120879120878
1650545856543.664,274.9244712990936,1286.4468864468863
1650545856544.781,274.9244712990936,1285.7142857142856
1650545856544.851,274.81377088785985,1284.9816849816848
1650545856546.1472,274.81377088785985,1284.2490842490843
1650545856577.5298,274.81377088785985,1284.2490842490843
1650545856578.633,274.81377088785985,1285.7142857142856
1650545856578.827,274.7031595894546,1284.9816849816848
1650545856599.971,274.81377088785985,1284.9816849816848
1650545856601.209,274.9244712990936,1285.7142857142856
1650545856602.512,274.81377088785985,1284.9816849816848
1650545856603.593,274.7031595894546,1284.2490842490843
1650545856603.7559,274.81377088785985,1283.5164835164835
1650545856628.733,274.7031595894546,1282.7838827838827
1650545856629.817,274.81377088785985,1281.3186813186812
1650545856629.953,274.7031595894546,1280.5860805860805
1650545856654.989,274.7031595894546,1280.5860805860805
1650545856656.1912,274.7031595894546,1282.051282051282
1650545856664.947,274.7031595894546,1284.9816849816848
1650545856666.122,274.7031595894546,1287.9120879120878
1650545856666.309,274.7031595894546,1287.9120879120878
1650545856691.232,274.81377088785985,1287.179487179487
1650545856692.331,274.81377088785985,1287.179487179487
1650545856692.49,274.5926372963186,1288.6446886446886
1650545856717.5142,274.7031595894546,1289.3772893772893
1650545856718.707,274.7031595894546,1286.4468864468863
1650545856726.197,274.7031595894546,1283.5164835164835
1650545856727.344,274.7031595894546,1281.3186813186812
1650545856727.488,274.5926372963186,1276.923076923077
1650545856753.778,274.81377088785985,1272.5274725274724
1650545856755.031,274.81377088785985,1268.8644688644688
1650545856755.2559,274.7031595894546,1265.9340659340658
1650545856778.7422,274.81377088785985,1265.2014652014652
1650545856780.026,274.7031595894546,1268.8644688644688
1650545856781.219,274.81377088785985,1276.923076923077
1650545856795.035,274.7031595894546,1290.8424908424909
1650545856795.305,274.7031595894546,1311.3553113553112
1650545856819.994,274.81377088785985,1339.194139194139
1650545856821.107,274.9244712990936,1376.5567765567764
1650545856821.344,274.81377088785985,1419.047619047619
1650545856842.498,274.81377088785985,1468.131868131868
1650545856843.718,274.81377088785985,1520.8791208791208
1650545856844.839,274.81377088785985,1576.5567765567764
1650545856879.962,274.81377088785985,1632.2344322344322
1650545856880.2642,274.81377088785985,1682.7838827838827
1650545856881.2612,274.9244712990936,1724.5421245421244
1650545856899.888,274.9244712990936,1757.5091575091574
1650545856900.076,274.81377088785985,1781.6849816849815
1650545856901.116,274.81377088785985,1794.139194139194
1650545856901.279,274.81377088785985,1794.8717948717947
1650545856906.141,275.03526093088857,1780.9523809523807
1650545856906.529,274.9244712990936,1758.974358974359
1650545856932.508,274.9244712990936,1728.2051282051282
1650545856933.7239,275.03526093088857,1693.7728937728937
1650545856958.728,275.03526093088857,1654.9450549450548
1650545856958.883,275.03526093088857,1616.117216117216
1650545856960.0151,275.14613989115094,1577.2893772893772
1650545856961.2031,275.14613989115094,1542.1245421245421
1650545856974.9229,275.14613989115094,1512.087912087912
1650545856975.176,275.03526093088857,1486.4468864468863
1650545856976.33,275.14613989115094,1466.6666666666665
1650545857002.495,275.03526093088857,1453.4798534798533
1650545857003.622,275.2571082879613,1443.956043956044
1650545857003.792,275.03526093088857,1440.2930402930401
1650545857016.238,275.2571082879613,1439.5604395604394
1650545857017.617,275.2571082879613,1437.3626373626373
1650545857031.2551,275.2571082879613,1435.164835164835
1650545857067.4019,275.2571082879613,1430.7692307692307
1650545857067.586,275.3681662295743,1424.9084249084249
1650545857068.731,275.3681662295743,1421.245421245421
1650545857078.634,275.3681662295743,1417.5824175824175
1650545857079.002,275.2571082879613,1417.5824175824175
1650545857080.048,275.3681662295743,1417.5824175824175
1650545857081.192,275.2571082879613,1419.047619047619
1650545857096.522,275.2571082879613,1421.9780219780218
1650545857096.7668,275.2571082879613,1426.3736263736262
1650545857121.263,275.47931382441976,1427.8388278388277
1650545857122.493,275.47931382441976,1429.3040293040292
1650545857137.471,275.3681662295743,1430.03663003663
1650545857137.6802,275.2571082879613,1432.9670329670328
1650545857151.259,275.3681662295743,1435.8974358974358
1650545857156.2432,275.47931382441976,1436.6300366300366
1650545857182.3872,275.47931382441976,1438.095238095238
1650545857182.575,275.2571082879613,1438.8278388278388
1650545857183.809,275.3681662295743,1435.164835164835
1650545857201.2688,275.3681662295743,1427.8388278388277
1650545857202.4119,275.47931382441976,1421.9780219780218
1650545857202.604,275.3681662295743,1416.117216117216
1650545857203.728,275.47931382441976,1408.7912087912086
1650545857204.97,275.47931382441976,1401.4652014652013
1650545857231.308,275.2571082879613,1396.3369963369962
1650545857232.489,275.3681662295743,1391.2087912087911
1650545857232.6802,275.47931382441976,1385.3479853479853
1650545857262.532,275.47931382441976,1378.7545787545787
1650545857263.635,275.3681662295743,1371.4285714285713
1650545857263.976,275.47931382441976,1362.6373626373625
1650545857266.361,275.47931382441976,1355.3113553113553
1650545857271.2742,275.47931382441976,1349.4505494505493
1650545857299.9338,275.47931382441976,1344.3223443223442
1650545857300.104,275.47931382441976,1337.7289377289376
1650545857301.249,275.59055118110234,1330.4029304029302
1650545857320.035,275.59055118110234,1324.5421245421244
1650545857321.1301,275.59055118110234,1320.14652014652
1650545857321.3079,275.47931382441976,1317.216117216117
1650545857322.4932,275.59055118110234,1314.2857142857142
1650545857336.235,275.59055118110234,1312.8205128205127
1650545857361.1382,275.59055118110234,1314.2857142857142
1650545857362.436,275.59055118110234,1316.4835164835165
1650545857362.626,275.59055118110234,1320.14652014652
1650545857381.388,275.59055118110234,1322.3443223443223
1650545857382.517,275.7018784084023,1322.3443223443223
1650545857382.822,275.47931382441976,1323.8095238095236
1650545857383.785,275.7018784084023,1326.7399267399267
1650545857416.3,275.47931382441976,1328.2051282051282
1650545857417.6108,275.7018784084023,1328.2051282051282
1650545857442.385,275.47931382441976,1327.4725274725274
1650545857442.554,275.7018784084023,1326.7399267399267
1650545857443.757,275.7018784084023,1326.7399267399267
1650545857444.849,275.59055118110234,1326.007326007326
1650545857444.978,275.7018784084023,1323.8095238095236
1650545857446.2432,275.7018784084023,1319.4139194139193
1650545857476.2559,275.59055118110234,1316.4835164835165
1650545857477.35,275.7018784084023,1314.2857142857142
1650545857497.4128,275.59055118110234,1311.3553113553112
1650545857497.7368,275.7018784084023,1307.6923076923076
1650545857498.8042,275.8132956152758,1304.7619047619046
1650545857499.9111,275.8132956152758,1304.0293040293038
1650545857500.097,275.7018784084023,1304.7619047619046
1650545857513.896,275.47931382441976,1304.7619047619046
1650545857540.009,275.47931382441976,1304.0293040293038
1650545857541.077,275.3681662295743,1304.0293040293038
1650545857558.6191,275.47931382441976,1303.2967032967033
1650545857558.807,275.47931382441976,1301.8315018315018
1650545857561.2559,275.47931382441976,1301.8315018315018
1650545857562.351,275.47931382441976,1301.8315018315018
1650545857562.491,275.3681662295743,1301.098901098901
1650545857576.215,275.47931382441976,1298.9010989010987
1650545857610.087,275.47931382441976,1298.9010989010987
1650545857611.335,275.47931382441976,1299.6336996336995
1650545857622.414,275.47931382441976,1301.098901098901
1650545857622.648,275.59055118110234,1301.098901098901
1650545857623.7012,275.59055118110234,1301.098901098901
1650545857624.837,275.59055118110234,1298.9010989010987
1650545857624.968,275.47931382441976,1298.9010989010987
1650545857657.48,275.59055118110234,1298.168498168498
1650545857658.667,275.59055118110234,1295.2380952380952
1650545857682.7358,275.7018784084023,1293.040293040293
1650545857683.6802,275.59055118110234,1290.8424908424909
1650545857683.96,275.7018784084023,1290.8424908424909
1650545857685.026,275.7018784084023,1288.6446886446886
1650545857686.1,275.7018784084023,1286.4468864468863
1650545857686.234,275.59055118110234,1282.051282051282
1650545857712.518,275.7018784084023,1280.5860805860805
1650545857713.824,275.8132956152758,1279.8534798534797
1650545857738.751,275.8132956152758,1280.5860805860805
1650545857739.8281,275.59055118110234,1284.2490842490843
1650545857739.94,275.8132956152758,1288.6446886446886
1650545857741.173,275.8132956152758,1293.040293040293
1650545857754.949,275.9248029108551,1296.7032967032967
1650545857755.1511,275.7018784084023,1296.7032967032967
1650545857756.217,275.9248029108551,1294.5054945054944
1650545857781.2642,275.8132956152758,1294.5054945054944
1650545857782.429,275.9248029108551,1291.5750915750914
1650545857806.123,275.8132956152758,1291.5750915750914
1650545857806.333,275.9248029108551,1289.3772893772893
1650545857807.477,275.9248029108551,1288.6446886446886
1650545857808.6282,275.9248029108551,1293.7728937728937
1650545857808.731,275.8132956152758,1301.8315018315018
1650545857834.9968,275.9248029108551,1318.6813186813185
1650545857836.219,275.9248029108551,1346.5201465201465
1650545857861.134,275.9248029108551,1385.3479853479853
1650545857862.3481,275.9248029108551,1433.6996336996335
1650545857862.499,276.03640040444895,1487.179487179487
1650545857864.95,276.03640040444895,1545.7875457875457
1650545857889.889,275.9248029108551,1605.8608058608058
1650545857890.0771,275.9248029108551,1663.7362637362637
1650545857891.202,275.9248029108551,1716.4835164835163
1650545857919.909,276.03640040444895,1759.7069597069597
1650545857920.223,276.03640040444895,1791.9413919413919
1650545857920.4968,275.9248029108551,1810.2564102564102
1650545857929.965,276.03640040444895,1813.9194139194137
1650545857931.243,276.03640040444895,1803.6630036630036
1650545857961.558,275.9248029108551,1779.4871794871794
1650545857961.759,276.03640040444895,1745.054945054945
1650545857962.472,276.03640040444895,1705.4945054945053
1650545857975.005,276.03640040444895,1662.2710622710622
1650545857976.0781,276.03640040444895,1616.117216117216
1650545857977.332,275.9248029108551,1570.6959706959706
1650545857977.489,276.03640040444895,1529.6703296703295
1650545857991.2021,275.9248029108551,1490.8424908424906
1650545858021.129,276.1480882055432,1455.6776556776556
1650545858021.314,276.03640040444895,1427.8388278388277
1650545858022.443,276.03640040444895,1406.5934065934066
1650545858037.524,276.03640040444895,1390.4761904761904
1650545858038.615,276.03640040444895,1380.2197802197802
1650545858038.786,276.03640040444895,1376.5567765567764
1650545858039.937,276.1480882055432,1376.5567765567764
1650545858053.8271,276.03640040444895,1379.4871794871794
1650545858079.8708,276.1480882055432,1382.4175824175823
1650545858080.038,276.03640040444895,1383.150183150183
1650545858081.182,276.1480882055432,1383.150183150183
1650545858103.748,276.2598664238009,1381.6849816849815
1650545858104.82,276.2598664238009,1381.6849816849815
1650545858106.071,276.1480882055432,1384.6153846153845
1650545858106.209,276.1480882055432,1386.8131868131868
1650545858133.7349,276.2598664238009,1389.7435897435896
1650545858134.887,276.2598664238009,1393.4065934065934
1650545858135.066,276.03640040444895,1397.069597069597
1650545858161.259,276.1480882055432,1402.197802197802
1650545858162.451,276.2598664238009,1405.128205128205
1650545858163.568,276.2598664238009,1408.7912087912086
1650545858163.708,276.1480882055432,1413.9194139194137
1650545858164.981,276.3717351690626,1419.047619047619
1650545858192.512,276.1480882055432,1424.1758241758241
1650545858193.5789,276.2598664238009,1426.3736263736262
1650545858193.7139,276.1480882055432,1427.106227106227
1650545858218.75,276.3717351690626,1424.1758241758241
1650545858220.0862,276.1480882055432,1419.047619047619
1650545858222.438,276.3717351690626,1408.058608058608
1650545858231.119,276.2598664238009,1397.8021978021977
1650545858231.2988,276.2598664238009,1388.278388278388
1650545858256.266,276.2598664238009,1380.952380952381
