Timestamp,GSR,PPG
1650546290496.811,111.75763747454174,0.0
1650546290510.7131,111.75763747454174,0.0
1650546290541.8242,111.75763747454174,0.0
1650546290542.829,111.75763747454174,0.0
1650546290543.267,111.75763747454174,0.0
1650546290555.397,111.75763747454174,0.0
1650546290569.133,111.75763747454174,0.0
1650546290569.32,111.75763747454174,0.0
1650546290569.425,116.21328982497775,0.0
1650546290570.418,116.21328982497775,0.0
1650546290606.77,116.28227960819234,0.0
1650546290607.882,116.21328982497775,0.0
1650546290608.085,116.21328982497775,0.0
1650546290620.498,116.21328982497775,0.0
1650546290621.727,116.28227960819234,0.0
1650546290622.885,116.28227960819234,0.0
1650546290623.054,116.28227960819234,0.0
1650546290634.403,116.28227960819234,0.0
1650546290660.655,116.35135135135134,0.0
1650546290661.884,116.35135135135134,0.0
1650546290684.222,116.35135135135134,0.0
1650546290684.365,116.42050520059435,0.0
1650546290685.7979,116.35135135135134,0.0
1650546290686.754,116.42050520059435,0.0
1650546290686.944,116.42050520059435,0.0
1650546290719.402,116.42050520059435,0.0
1650546290720.621,116.48974130240856,0.0
1650546290736.9512,116.48974130240856,0.0
1650546290739.053,116.48974130240856,0.0
1650546290739.2622,116.48974130240856,0.0
1650546290739.424,116.48974130240856,0.0
1650546290753.634,116.55905980362986,0.0
1650546290753.8381,116.48974130240856,0.0
1650546290779.5,116.55905980362986,0.0
1650546290780.7058,116.55905980362986,0.0
1650546290800.831,116.62846085144388,0.0
1650546290801.0981,116.62846085144388,0.0
1650546290802.208,116.62846085144388,0.0
1650546290803.396,116.69794459338695,0.0
1650546290816.977,116.62846085144388,0.0
1650546290817.0781,116.62846085144388,0.0
1650546290844.596,116.69794459338695,0.0
1650546290845.801,116.69794459338695,0.0
1650546290860.864,116.69794459338695,0.0
1650546290861.988,116.76751117734723,0.0
1650546290862.171,116.76751117734723,0.0
1650546290863.3389,116.76751117734723,0.0
1650546290877.1619,116.76751117734723,0.0
1650546290877.476,116.76751117734723,0.0
1650546290903.4988,116.83716075156576,0.0
1650546290904.697,116.83716075156576,0.0
1650546290927.279,116.83716075156576,0.0
1650546290928.318,116.90689346463742,0.0
1650546290928.4329,116.83716075156576,0.0
1650546290929.888,116.90689346463742,0.0
1650546290958.405,116.90689346463742,0.0
1650546290958.566,116.83716075156576,0.0
1650546290959.703,116.90689346463742,0.0
1650546290978.563,116.97670946551209,0.0
1650546290979.6382,116.97670946551209,0.0
1650546290979.7512,116.90689346463742,0.0
1650546290981.067,116.97670946551209,0.0
1650546290994.811,116.97670946551209,0.0
1650546290997.212,117.04660890349567,0.0
1650546290997.367,116.97670946551209,0.0
1650546291023.656,117.04660890349567,0.0
1650546291024.867,117.04660890349567,0.0
1650546291043.602,117.04660890349567,0.0
1650546291046.111,116.97670946551209,0.0
1650546291046.25,117.04660890349567,0.0
1650546291052.491,117.11659192825111,0.0
1650546291078.5889,117.04660890349567,0.0
1650546291078.756,117.04660890349567,0.0
1650546291079.911,117.11659192825111,0.0
1650546291104.304,117.11659192825111,0.0
1650546291104.829,117.11659192825111,0.0
1650546291104.951,117.11659192825111,0.0
1650546291106.172,117.11659192825111,0.0
1650546291140.0,117.18665868979957,0.0
1650546291141.143,117.18665868979957,0.0
1650546291141.228,117.11659192825111,0.0
1650546291158.798,117.25680933852139,0.0
1650546291160.019,117.18665868979957,0.0
1650546291161.253,117.18665868979957,0.0
1650546291166.2542,117.18665868979957,0.0
1650546291166.431,117.18665868979957,0.0
1650546291198.859,117.25680933852139,0.0
1650546291199.976,117.25680933852139,0.0
1650546291200.135,117.18665868979957,0.0
1650546291222.772,117.25680933852139,0.0
1650546291224.05,117.25680933852139,0.0
1650546291225.035,117.25680933852139,0.0
1650546291225.2122,117.25680933852139,0.0
1650546291230.4128,117.32704402515722,0.0
1650546291256.571,117.18665868979957,0.0
1650546291257.649,117.32704402515722,0.0
1650546291257.863,117.32704402515722,0.0
1650546291278.9568,117.3973629008091,0.0
1650546291280.171,117.25680933852139,0.0
1650546291281.4219,117.3973629008091,0.0
1650546291308.891,117.32704402515722,0.0
1650546291309.0898,117.32704402515722,0.0
1650546291310.284,117.3973629008091,0.0
1650546291335.1692,117.3973629008091,0.0
1650546291335.346,117.32704402515722,0.0
1650546291344.121,117.3973629008091,0.0
1650546291345.261,117.3973629008091,0.0
1650546291346.62,117.46776611694152,0.0
1650546291346.965,117.3973629008091,0.0
1650546291375.322,117.3973629008091,0.0
1650546291376.552,117.46776611694152,0.0
1650546291405.291,117.46776611694152,0.0
1650546291405.446,117.46776611694152,0.0
1650546291406.658,117.46776611694152,0.0
1650546291407.9138,117.46776611694152,0.0
1650546291410.391,117.46776611694152,0.0
1650546291435.2952,117.46776611694152,0.0
1650546291435.473,117.3973629008091,0.0
1650546291436.6409,117.46776611694152,0.0
1650546291461.763,117.53825382538253,0.0
1650546291461.992,117.46776611694152,0.0
1650546291475.514,117.46776611694152,0.0
1650546291476.6619,117.53825382538253,0.0
1650546291477.9219,117.53825382538253,0.0
1650546291504.18,117.46776611694152,0.0
1650546291504.374,117.53825382538253,0.0
1650546291505.528,117.46776611694152,0.0
1650546291519.175,117.53825382538253,0.0
1650546291519.392,117.53825382538253,0.0
1650546291520.503,117.60882617832482,0.0
1650546291521.739,117.60882617832482,0.0
1650546291535.534,117.60882617832482,0.0
1650546291535.775,117.46776611694152,0.0
1650546291564.374,117.60882617832482,0.0
1650546291565.664,117.60882617832482,0.0
1650546291581.9211,117.60882617832482,0.0
1650546291582.085,117.53825382538253,0.0
1650546291583.152,117.60882617832482,0.0
1650546291584.3142,117.60882617832482,0.0
1650546291611.861,117.60882617832482,0.0
1650546291612.03,117.53825382538253,0.0
1650546291644.464,117.60882617832482,0.0
1650546291645.6921,117.60882617832482,0.0
1650546291646.935,117.60882617832482,0.0
1650546291647.1528,117.60882617832482,0.0
1650546291648.218,117.60882617832482,0.0
1650546291649.436,117.60882617832482,0.0
1650546291699.402,117.60882617832482,0.0
1650546291699.592,117.53825382538253,0.0
1650546291700.725,117.60882617832482,0.0
1650546291703.284,117.60882617832482,0.0
1650546291704.377,117.60882617832482,0.0
1650546291704.532,117.53825382538253,0.0
1650546291705.7468,117.60882617832482,0.0
1650546291732.076,117.53825382538253,0.0
1650546291733.1592,117.60882617832482,0.0
1650546291733.307,117.53825382538253,0.0
1650546291760.8499,117.53825382538253,0.0
1650546291762.066,117.60882617832482,0.0
1650546291769.4832,117.53825382538253,0.0
1650546291769.6519,117.60882617832482,0.0
1650546291772.093,117.60882617832482,0.0
1650546291774.575,117.60882617832482,0.0
1650546291800.8088,117.60882617832482,0.0
1650546291800.991,117.60882617832482,0.0
1650546291802.1729,117.60882617832482,0.0
1650546291819.739,117.60882617832482,0.0
1650546291820.831,117.53825382538253,0.0
1650546291820.984,117.53825382538253,0.0
1650546291822.215,117.53825382538253,0.0
1650546291835.98,117.46776611694152,0.0
1650546291860.955,117.60882617832482,0.0
1650546291862.183,117.53825382538253,0.0
1650546291862.473,117.53825382538253,0.0
1650546291882.415,117.53825382538253,0.0
1650546291883.535,117.53825382538253,0.0
1650546291883.958,117.46776611694152,0.0
1650546291884.793,117.46776611694152,0.0
1650546291923.582,117.3973629008091,0.0
1650546291924.784,117.53825382538253,0.0
1650546291943.4358,117.46776611694152,0.0
1650546291943.564,117.53825382538253,0.0
1650546291944.7788,117.53825382538253,0.0
1650546291945.953,117.46776611694152,0.0
1650546291946.268,117.3973629008091,0.0
1650546291947.354,117.53825382538253,0.0
1650546291972.386,117.3973629008091,0.0
1650546291973.602,117.46776611694152,0.0
1650546291998.593,117.3973629008091,0.0
1650546291998.95,117.46776611694152,0.0
1650546291999.897,117.46776611694152,0.0
1650546292009.817,117.3973629008091,0.0
1650546292010.018,117.3973629008091,0.0
1650546292011.135,117.32704402515722,0.0
1650546292038.705,117.3973629008091,0.0
1650546292039.917,117.3973629008091,0.0
1650546292059.825,117.32704402515722,0.0
1650546292059.948,117.32704402515722,0.0
1650546292061.1638,117.25680933852139,0.0
1650546292062.526,117.3973629008091,0.0
1650546292062.705,117.25680933852139,0.0
1650546292076.959,117.32704402515722,0.0
1650546292101.281,117.32704402515722,0.0
1650546292102.489,117.32704402515722,0.0
1650546292119.9492,117.32704402515722,0.0
1650546292120.1191,117.25680933852139,0.0
1650546292121.273,117.25680933852139,0.0
1650546292122.463,117.25680933852139,0.0
1650546292122.584,117.18665868979957,0.0
1650546292136.323,117.25680933852139,0.0
1650546292161.353,117.32704402515722,0.0
1650546292162.572,117.25680933852139,0.0
1650546292162.759,117.11659192825111,0.0
1650546292187.673,117.25680933852139,0.0
1650546292188.855,117.25680933852139,0.0
1650546292197.573,117.25680933852139,0.0
1650546292197.742,117.18665868979957,0.0
1650546292228.941,117.18665868979957,0.0
1650546292230.202,117.25680933852139,0.0
1650546292245.283,117.18665868979957,0.0
1650546292245.52,117.11659192825111,0.0
1650546292249.471,117.11659192825111,0.0
1650546292249.781,117.18665868979957,0.0
1650546292250.191,117.11659192825111,0.0
1650546292250.396,117.04660890349567,0.0
1650546292279.0288,117.11659192825111,0.0
1650546292280.311,117.11659192825111,0.0
1650546292304.037,117.11659192825111,0.0
1650546292305.123,116.97670946551209,0.0
1650546292305.374,117.04660890349567,0.0
1650546292306.526,117.04660890349567,0.0
1650546292315.206,117.04660890349567,0.0
1650546292315.4211,116.97670946551209,0.0
1650546292340.41,117.04660890349567,0.0
1650546292341.634,117.04660890349567,0.0
1650546292365.326,116.97670946551209,0.0
1650546292365.657,116.90689346463742,0.0
1650546292366.581,116.97670946551209,0.0
1650546292367.798,116.97670946551209,0.0
1650546292376.513,116.97670946551209,0.0
1650546292376.693,116.83716075156576,0.0
1650546292411.653,116.97670946551209,0.0
1650546292412.8809,116.90689346463742,0.0
1650546292428.031,116.90689346463742,0.0
1650546292429.056,116.76751117734723,0.0
1650546292429.208,116.83716075156576,0.0
1650546292430.506,116.76751117734723,0.0
1650546292439.09,116.76751117734723,0.0
1650546292439.2869,116.62846085144388,0.0
1650546292466.729,116.62846085144388,0.0
1650546292467.9539,116.69794459338695,0.0
1650546292484.208,116.62846085144388,0.0
1650546292485.32,116.55905980362986,0.0
1650546292485.46,116.55905980362986,0.0
1650546292490.504,116.55905980362986,0.0
1650546292515.396,116.48974130240856,0.0
1650546292515.573,116.42050520059435,0.0
1650546292543.0552,116.48974130240856,0.0
1650546292544.281,116.42050520059435,0.0
1650546292545.543,116.42050520059435,0.0
1650546292546.679,116.35135135135134,0.0
1650546292546.819,116.42050520059435,0.0
1650546292574.3599,116.35135135135134,0.0
1650546292575.541,116.28227960819234,0.0
1650546292575.788,116.28227960819234,0.0
1650546292606.883,116.21328982497775,0.0
1650546292608.145,116.21328982497775,0.0
1650546292611.7402,116.21328982497775,0.0
1650546292611.897,116.07555555555555,0.0
1650546292613.115,116.07555555555555,0.0
1650546292619.251,116.07555555555555,0.0
1650546292651.836,116.07555555555555,0.0
1650546292652.021,116.00681077879774,0.0
1650546292653.1528,116.00681077879774,0.0
1650546292658.19,116.00681077879774,0.0
1650546292659.396,115.93814738088192,0.0
1650546292668.263,115.8695652173913,0.0
1650546292668.442,115.93814738088192,0.0
1650546292694.4849,115.93814738088192,0.0
1650546292695.594,115.8695652173913,0.0
1650546292695.748,115.80106414425066,0.0
1650546292722.015,115.80106414425066,0.0
1650546292723.232,115.73264401772525,0.0
1650546292734.5022,115.80106414425066,0.0
1650546292735.635,115.73264401772525,0.0
1650546292735.799,115.73264401772525,0.0
1650546292737.0032,115.73264401772525,0.0
1650546292761.952,115.59604603127767,0.0
1650546292762.1318,115.66430469441984,0.0
1650546292763.282,115.66430469441984,0.0
1650546292787.116,115.66430469441984,0.0
1650546292788.262,115.59604603127767,0.0
1650546292788.419,115.52786788557947,0.0
1650546292794.58,115.52786788557947,0.0
1650546292819.758,115.52786788557947,0.0
1650546292820.7468,115.45977011494253,0.0
1650546292820.901,115.45977011494253,0.0
1650546292848.531,115.32381513099794,0.0
1650546292849.7031,115.32381513099794,0.0
1650546292850.868,115.39175257731958,0.0
1650546292851.0571,115.2559576345984,0.0
1650546292877.188,115.2559576345984,0.0
1650546292878.4639,115.12048192771084,0.0
1650546292904.6619,115.2559576345984,0.0
1650546292904.819,115.18817994707439,0.0
1650546292906.054,115.18817994707439,0.0
1650546292909.799,115.2559576345984,0.0
1650546292911.033,115.18817994707439,0.0
1650546292919.644,115.12048192771084,0.0
1650546292919.8352,115.18817994707439,0.0
1650546292946.0781,115.18817994707439,0.0
1650546292947.326,115.12048192771084,0.0
1650546292964.8098,115.12048192771084,0.0
1650546292967.319,115.12048192771084,0.0
1650546292968.53,115.05286343612335,0.0
1650546292971.039,115.12048192771084,0.0
1650546292998.539,115.05286343612335,0.0
1650546292998.7349,115.12048192771084,0.0
1650546292999.857,115.12048192771084,0.0
1650546293024.7668,115.12048192771084,0.0
1650546293024.956,115.12048192771084,0.0
1650546293026.0872,115.12048192771084,0.0
1650546293029.8518,115.12048192771084,0.0
1650546293031.104,115.12048192771084,0.0
1650546293056.0652,115.05286343612335,0.0
1650546293056.2388,115.12048192771084,0.0
1650546293057.359,115.12048192771084,0.0
1650546293083.647,115.12048192771084,0.0
1650546293083.841,114.98532433225712,0.0
1650546293084.886,115.12048192771084,0.0
1650546293089.903,115.18817994707439,0.0
1650546293096.124,115.12048192771084,0.0
1650546293096.2861,115.12048192771084,0.0
1650546293121.2102,115.18817994707439,0.0
1650546293145.477,115.18817994707439,0.0
1650546293147.5579,115.18817994707439,0.0
1650546293147.832,115.12048192771084,0.0
1650546293148.803,115.12048192771084,0.0
1650546293150.0918,115.18817994707439,0.0
1650546293177.57,115.18817994707439,0.0
1650546293177.8582,115.12048192771084,0.0
1650546293178.797,115.18817994707439,0.0
1650546293203.806,115.18817994707439,0.0
1650546293204.9019,115.18817994707439,0.0
1650546293205.025,115.05286343612335,0.0
1650546293206.2449,115.18817994707439,0.0
1650546293207.477,115.18817994707439,0.0
1650546293232.565,115.05286343612335,0.0
1650546293233.744,115.12048192771084,0.0
1650546293233.895,115.12048192771084,0.0
1650546293262.606,115.18817994707439,0.0
1650546293268.7769,115.12048192771084,0.0
1650546293268.904,115.05286343612335,0.0
1650546293270.0652,115.05286343612335,0.0
1650546293295.145,115.05286343612335,0.0
1650546293296.222,115.12048192771084,0.0
1650546293296.344,115.05286343612335,0.0
1650546293321.42,115.12048192771084,0.0
1650546293322.5452,115.12048192771084,0.0
1650546293322.667,115.12048192771084,0.0
1650546293322.763,115.05286343612335,13.919413919413918
1650546293331.394,115.12048192771084,145.78754578754578
1650546293332.6362,115.05286343612335,324.5421245421245
1650546293361.35,115.12048192771084,517.2161172161171
1650546293361.553,115.05286343612335,704.7619047619047
1650546293362.667,115.05286343612335,873.992673992674
1650546293390.268,115.12048192771084,1020.5128205128204
1650546293391.321,115.05286343612335,1141.3919413919414
1650546293391.4248,115.05286343612335,1238.8278388278388
1650546293392.695,114.98532433225712,1313.5531135531135
1650546293399.002,115.05286343612335,1369.230769230769
1650546293430.2449,115.05286343612335,1406.5934065934066
1650546293430.3948,114.98532433225712,1429.3040293040292
1650546293431.605,115.05286343612335,1439.5604395604394
1650546293449.037,115.05286343612335,1441.7582417582416
1650546293450.196,114.98532433225712,1438.095238095238
1650546293450.316,114.98532433225712,1429.3040293040292
1650546293451.571,114.98532433225712,1415.3846153846152
1650546293480.3008,115.05286343612335,1399.2673992673992
1650546293501.511,114.98532433225712,1386.080586080586
1650546293501.7048,114.91786447638604,1372.161172161172
1650546293502.806,114.98532433225712,1360.4395604395604
1650546293504.059,114.98532433225712,1347.2527472527472
1650546293505.2,115.05286343612335,1336.263736263736
1650546293505.307,114.98532433225712,1328.937728937729
1650546293514.081,114.98532433225712,1320.8791208791208
1650546293539.146,114.98532433225712,1315.7509157509157
1650546293540.345,114.98532433225712,1313.5531135531135
1650546293566.797,114.91786447638604,1315.018315018315
1650546293567.1611,114.98532433225712,1317.216117216117
1650546293568.052,114.98532433225712,1318.6813186813185
1650546293569.299,115.05286343612335,1317.216117216117
1650546293570.417,114.91786447638604,1317.9487179487178
1650546293599.5269,114.98532433225712,1317.216117216117
1650546293625.528,114.98532433225712,1315.7509157509157
1650546293626.7031,114.91786447638604,1315.018315018315
1650546293629.146,114.98532433225712,1315.018315018315
1650546293629.27,114.91786447638604,1315.018315018315
1650546293630.436,114.98532433225712,1315.7509157509157
1650546293631.5889,114.98532433225712,1317.9487179487178
1650546293631.71,114.91786447638604,1321.6117216117216
1650546293640.455,114.98532433225712,1324.5421245421244
1650546293668.052,114.98532433225712,1325.2747252747251
1650546293669.2258,114.98532433225712,1328.2051282051282
1650546293687.9412,114.98532433225712,1330.4029304029302
1650546293688.3572,114.91786447638604,1334.7985347985348
1650546293689.293,114.98532433225712,1337.7289377289376
1650546293690.433,114.98532433225712,1339.194139194139
1650546293690.571,114.91786447638604,1339.194139194139
1650546293721.828,114.98532433225712,1337.7289377289376
1650546293723.02,114.98532433225712,1336.9963369963368
1650546293741.7349,114.98532433225712,1336.9963369963368
1650546293741.914,114.98532433225712,1339.194139194139
1650546293743.052,114.98532433225712,1340.6593406593406
1650546293744.3062,114.98532433225712,1342.8571428571427
1650546293758.003,114.98532433225712,1341.3919413919414
1650546293758.2559,114.91786447638604,1339.194139194139
1650546293759.367,114.98532433225712,1336.263736263736
1650546293786.895,114.91786447638604,1335.5311355311355
1650546293788.0918,114.98532433225712,1336.9963369963368
1650546293806.973,114.98532433225712,1337.7289377289376
1650546293807.2458,114.98532433225712,1336.9963369963368
1650546293808.425,114.98532433225712,1334.7985347985348
1650546293816.956,114.98532433225712,1331.8681318681317
1650546293817.2578,114.98532433225712,1328.937728937729
1650546293845.804,114.98532433225712,1325.2747252747251
1650546293846.999,115.05286343612335,1323.8095238095236
1650546293848.24,115.05286343612335,1325.2747252747251
1650546293870.625,114.91786447638604,1328.2051282051282
1650546293870.815,114.98532433225712,1329.6703296703297
1650546293872.001,115.05286343612335,1328.2051282051282
1650546293878.1072,115.05286343612335,1326.7399267399267
1650546293878.372,115.05286343612335,1326.007326007326
1650546293909.55,115.05286343612335,1327.4725274725274
1650546293910.734,115.12048192771084,1328.937728937729
1650546293929.667,115.12048192771084,1328.937728937729
1650546293930.7139,114.98532433225712,1330.4029304029302
1650546293930.9001,115.05286343612335,1332.6007326007325
1650546293932.097,115.12048192771084,1336.263736263736
1650546293940.684,115.12048192771084,1339.9267399267399
1650546293940.854,115.05286343612335,1344.3223443223442
1650546293965.998,115.05286343612335,1347.985347985348
1650546293968.131,115.18817994707439,1351.6483516483515
1650546293988.351,115.18817994707439,1357.5091575091574
1650546293989.565,115.12048192771084,1362.6373626373625
1650546293989.747,115.12048192771084,1365.5677655677655
1650546293992.1191,115.18817994707439,1367.032967032967
1650546294019.701,115.18817994707439,1369.230769230769
1650546294019.8828,115.18817994707439,1371.4285714285713
1650546294044.6511,115.18817994707439,1375.8241758241757
1650546294045.8691,115.2559576345984,1379.4871794871794
1650546294046.1172,115.2559576345984,1380.2197802197802
1650546294046.195,115.18817994707439,1379.4871794871794
1650546294048.417,115.2559576345984,1376.5567765567764
1650546294057.166,115.2559576345984,1372.8937728937728
1650546294084.689,115.18817994707439,1369.9633699633698
1650546294084.804,115.18817994707439,1366.3003663003662
1650546294085.8591,115.2559576345984,1361.904761904762
1650546294110.991,115.2559576345984,1357.5091575091574
1650546294112.166,115.2559576345984,1351.6483516483515
1650546294113.294,115.2559576345984,1348.7179487179487
1650546294113.395,115.18817994707439,1345.7875457875457
1650546294119.766,115.18817994707439,1342.8571428571427
1650546294144.711,115.18817994707439,1344.3223443223442
1650546294144.881,115.18817994707439,1345.7875457875457
1650546294145.928,115.2559576345984,1347.985347985348
1650546294169.7979,115.2559576345984,1349.4505494505493
1650546294170.991,115.2559576345984,1348.7179487179487
1650546294172.105,115.2559576345984,1349.4505494505493
1650546294172.209,115.2559576345984,1348.7179487179487
1650546294201.076,115.32381513099794,1348.7179487179487
1650546294202.17,115.2559576345984,1346.5201465201465
1650546294202.3188,115.18817994707439,1344.3223443223442
1650546294228.563,115.2559576345984,1341.3919413919414
1650546294229.808,115.2559576345984,1337.7289377289376
1650546294232.188,115.32381513099794,1334.065934065934
1650546294232.3352,115.2559576345984,1331.8681318681317
1650546294233.5352,115.2559576345984,1331.8681318681317
1650546294261.079,115.18817994707439,1333.3333333333333
1650546294262.241,115.32381513099794,1334.7985347985348
1650546294262.367,115.2559576345984,1337.7289377289376
1650546294288.624,115.2559576345984,1339.9267399267399
1650546294289.8408,115.32381513099794,1342.1245421245421
1650546294291.0571,115.2559576345984,1345.054945054945
1650546294292.198,115.2559576345984,1350.9157509157508
1650546294292.2659,115.2559576345984,1356.0439560439559
1650546294322.407,115.2559576345984,1361.904761904762
1650546294323.551,115.32381513099794,1361.904761904762
1650546294323.7258,115.32381513099794,1360.4395604395604
1650546294344.92,115.2559576345984,1360.4395604395604
1650546294346.177,115.2559576345984,1361.904761904762
1650546294348.6782,115.32381513099794,1364.102564102564
1650546294373.591,115.2559576345984,1366.3003663003662
1650546294373.762,115.32381513099794,1367.7655677655678
1650546294374.9412,115.39175257731958,1367.7655677655678
1650546294399.94,115.39175257731958,1366.3003663003662
1650546294400.127,115.32381513099794,1366.3003663003662
1650546294412.38,115.32381513099794,1366.3003663003662
1650546294412.555,115.32381513099794,1365.5677655677655
1650546294413.634,115.39175257731958,1366.3003663003662
1650546294413.839,115.32381513099794,1368.4981684981683
1650546294445.011,115.39175257731958,1367.032967032967
1650546294446.1492,115.39175257731958,1367.032967032967
1650546294467.4138,115.39175257731958,1367.032967032967
1650546294467.5679,115.39175257731958,1367.032967032967
1650546294468.8079,115.32381513099794,1365.5677655677655
1650546294470.0352,115.39175257731958,1363.3699633699632
1650546294471.2861,115.39175257731958,1360.4395604395604
1650546294526.26,115.2559576345984,1356.7765567765566
1650546294526.419,115.32381513099794,1352.3809523809523
1650546294527.6338,115.39175257731958,1347.985347985348
1650546294528.687,115.39175257731958,1342.8571428571427
1650546294528.802,115.39175257731958,1341.3919413919414
1650546294530.052,115.45977011494253,1337.7289377289376
1650546294531.327,115.39175257731958,1334.7985347985348
1650546294532.655,115.39175257731958,1332.6007326007325
1650546294558.761,115.39175257731958,1334.065934065934
1650546294558.871,115.39175257731958,1336.263736263736
1650546294560.108,115.45977011494253,1336.9963369963368
1650546294586.249,115.45977011494253,1337.7289377289376
1650546294586.3599,115.39175257731958,1338.4615384615383
1650546294587.5771,115.45977011494253,1338.4615384615383
1650546294590.067,115.45977011494253,1339.194139194139
1650546294598.756,115.45977011494253,1341.3919413919414
1650546294598.856,115.45977011494253,1345.054945054945
1650546294626.5571,115.52786788557947,1348.7179487179487
1650546294628.4658,115.52786788557947,1353.8461538461538
1650546294646.44,115.45977011494253,1356.0439560439559
1650546294646.637,115.45977011494253,1358.974358974359
1650546294647.723,115.45977011494253,1361.1721611721612
1650546294648.997,115.52786788557947,1361.1721611721612
1650546294675.271,115.52786788557947,1360.4395604395604
1650546294676.341,115.45977011494253,1359.7069597069597
1650546294676.47,115.52786788557947,1356.7765567765566
1650546294702.739,115.52786788557947,1353.8461538461538
1650546294703.9531,115.52786788557947,1353.8461538461538
1650546294704.231,115.52786788557947,1351.6483516483515
1650546294715.2532,115.59604603127767,1347.2527472527472
1650546294716.464,115.59604603127767,1342.8571428571427
1650546294746.4558,115.59604603127767,1339.9267399267399
1650546294746.6272,115.59604603127767,1339.194139194139
1650546294747.8389,115.59604603127767,1338.4615384615383
1650546294749.0598,115.66430469441984,1338.4615384615383
1650546294765.322,115.66430469441984,1338.4615384615383
1650546294765.6318,115.59604603127767,1341.3919413919414
1650546294766.5652,115.59604603127767,1345.054945054945
1650546294775.3179,115.66430469441984,1349.4505494505493
1650546294802.788,115.66430469441984,1352.3809523809523
1650546294802.9739,115.59604603127767,1358.974358974359
1650546294804.106,115.66430469441984,1365.5677655677655
1650546294830.3372,115.73264401772525,1374.3589743589744
1650546294831.458,115.73264401772525,1380.2197802197802
1650546294831.5908,115.66430469441984,1389.0109890109889
1650546294835.34,115.66430469441984,1395.6043956043954
1650546294836.652,115.73264401772525,1400.7326007326005
1650546294864.2148,115.59604603127767,1405.8608058608058
1650546294886.686,115.66430469441984,1408.7912087912086
1650546294886.85,115.66430469441984,1408.7912087912086
1650546294887.789,115.66430469441984,1408.058608058608
1650546294887.885,115.73264401772525,1407.3260073260071
1650546294887.92,115.66430469441984,1406.5934065934066
1650546294890.793,115.73264401772525,1404.3956043956043
1650546294920.5999,115.73264401772525,1400.0
1650546294921.679,115.73264401772525,1394.139194139194
1650546294921.8918,115.73264401772525,1387.5457875457876
1650546294950.46,115.73264401772525,1380.2197802197802
1650546294951.711,115.73264401772525,1373.6263736263736
1650546294952.79,115.73264401772525,1369.230769230769
1650546294952.901,115.73264401772525,1366.3003663003662
1650546294954.165,115.66430469441984,1363.3699633699632
1650546294985.6729,115.73264401772525,1361.1721611721612
1650546294986.6792,115.73264401772525,1356.0439560439559
1650546294986.787,115.66430469441984,1352.3809523809523
1650546295005.625,115.73264401772525,1349.4505494505493
1650546295006.797,115.73264401772525,1347.985347985348
1650546295007.895,115.73264401772525,1347.985347985348
1650546295008.087,115.73264401772525,1350.18315018315
1650546295016.8481,115.66430469441984,1348.7179487179487
1650546295043.164,115.73264401772525,1347.985347985348
1650546295044.251,115.73264401772525,1347.985347985348
1650546295069.3108,115.66430469441984,1350.9157509157508
1650546295069.538,115.73264401772525,1355.3113553113553
1650546295070.54,115.73264401772525,1358.974358974359
1650546295071.705,115.66430469441984,1363.3699633699632
1650546295072.0168,115.59604603127767,1367.032967032967
1650546295080.562,115.66430469441984,1368.4981684981683
1650546295105.635,115.66430469441984,1369.230769230769
1650546295106.821,115.59604603127767,1371.4285714285713
1650546295129.271,115.59604603127767,1374.3589743589744
1650546295129.508,115.66430469441984,1376.5567765567764
1650546295130.655,115.66430469441984,1377.2893772893772
1650546295131.756,115.66430469441984,1379.4871794871794
1650546295131.885,115.66430469441984,1381.6849816849815
1650546295161.9229,115.66430469441984,1382.4175824175823
1650546295162.138,115.66430469441984,1380.2197802197802
1650546295186.954,115.66430469441984,1378.7545787545787
1650546295188.029,115.59604603127767,1378.7545787545787
1650546295188.175,115.59604603127767,1376.5567765567764
1650546295190.732,115.66430469441984,1375.091575091575
1650546295191.781,115.59604603127767,1375.091575091575
1650546295191.9192,115.52786788557947,1377.2893772893772
1650546295218.219,115.52786788557947,1378.021978021978
1650546295219.375,115.59604603127767,1378.7545787545787
1650546295247.138,115.59604603127767,1378.7545787545787
1650546295248.174,115.52786788557947,1376.5567765567764
1650546295248.311,115.59604603127767,1372.8937728937728
1650546295253.175,115.59604603127767,1368.4981684981683
1650546295254.313,115.59604603127767,1361.1721611721612
1650546295254.431,115.45977011494253,1358.2417582417581
1650546295279.488,115.45977011494253,1358.2417582417581
1650546295280.691,115.52786788557947,1358.974358974359
1650546295305.702,115.52786788557947,1359.7069597069597
1650546295305.8792,115.45977011494253,1362.6373626373625
1650546295306.948,115.45977011494253,1366.3003663003662
1650546295310.7432,115.45977011494253,1368.4981684981683
1650546295315.6719,115.45977011494253,1369.230769230769
1650546295315.812,115.39175257731958,1368.4981684981683
1650546295340.759,115.45977011494253,1367.7655677655678
1650546295342.02,115.45977011494253,1366.3003663003662
1650546295368.402,115.45977011494253,1364.8351648351647
1650546295369.407,115.39175257731958,1364.102564102564
1650546295369.581,115.39175257731958,1363.3699633699632
1650546295370.776,115.39175257731958,1363.3699633699632
1650546295400.7512,115.39175257731958,1361.904761904762
1650546295400.898,115.32381513099794,1363.3699633699632
1650546295402.129,115.39175257731958,1363.3699633699632
1650546295427.134,115.39175257731958,1364.8351648351647
1650546295428.147,115.39175257731958,1364.8351648351647
1650546295428.211,115.32381513099794,1362.6373626373625
1650546295434.7861,115.32381513099794,1361.1721611721612
1650546295435.8772,115.2559576345984,1358.2417582417581
1650546295441.977,115.32381513099794,1356.7765567765566
1650546295442.098,115.18817994707439,1355.3113553113553
1650546295468.4539,115.32381513099794,1353.113553113553
1650546295469.6072,115.2559576345984,1353.113553113553
1650546295487.21,115.2559576345984,1353.113553113553
1650546295488.262,115.18817994707439,1356.0439560439559
1650546295488.3708,115.2559576345984,1358.2417582417581
1650546295493.5452,115.2559576345984,1361.1721611721612
1650546295518.363,115.12048192771084,1364.8351648351647
1650546295518.5298,115.12048192771084,1366.3003663003662
1650546295521.6738,115.18817994707439,1369.230769230769
1650546295550.019,115.18817994707439,1367.7655677655678
1650546295551.01,115.18817994707439,1367.032967032967
1650546295552.083,115.12048192771084,1363.3699633699632
1650546295552.211,115.12048192771084,1359.7069597069597
1650546295553.3472,115.12048192771084,1358.2417582417581
1650546295580.952,115.05286343612335,1359.7069597069597
1650546295581.227,114.98532433225712,1360.4395604395604
1650546295585.694,115.05286343612335,1360.4395604395604
1650546295608.482,115.05286343612335,1361.904761904762
1650546295609.7,115.05286343612335,1363.3699633699632
1650546295618.461,115.05286343612335,1361.904761904762
1650546295618.693,114.98532433225712,1361.1721611721612
1650546295643.5571,114.98532433225712,1358.974358974359
1650546295644.622,114.98532433225712,1358.2417582417581
1650546295644.77,114.91786447638604,1356.7765567765566
1650546295673.6409,114.91786447638604,1356.7765567765566
1650546295673.76,114.91786447638604,1355.3113553113553
1650546295673.9248,114.8504837291117,1353.8461538461538
1650546295674.013,114.91786447638604,1351.6483516483515
1650546295674.7341,114.91786447638604,1348.7179487179487
1650546295704.8281,114.8504837291117,1347.2527472527472
1650546295705.94,114.8504837291117,1345.7875457875457
1650546295706.0698,114.8504837291117,1346.5201465201465
1650546295729.876,114.8504837291117,1350.18315018315
1650546295731.054,114.8504837291117,1356.0439560439559
1650546295732.307,114.78318195136244,1364.102564102564
1650546295733.391,114.78318195136244,1374.3589743589744
1650546295733.492,114.78318195136244,1384.6153846153845
1650546295758.6611,114.71595900439239,1396.3369963369962
1650546295760.0059,114.78318195136244,1408.7912087912086
1650546295760.154,114.71595900439239,1418.3150183150183
1650546295784.855,114.71595900439239,1425.6410256410256
1650546295786.376,114.78318195136244,1431.5018315018315
1650546295789.9111,114.78318195136244,1435.164835164835
1650546295796.081,114.71595900439239,1439.5604395604394
1650546295796.217,114.64881474978051,1440.2930402930401
1650546295823.735,114.71595900439239,1440.2930402930401
1650546295824.812,114.71595900439239,1438.095238095238
1650546295824.965,114.64881474978051,1435.8974358974358
1650546295843.7458,114.64881474978051,1429.3040293040292
1650546295844.965,114.58174904942966,1421.245421245421
1650546295846.062,114.64881474978051,1413.9194139194137
1650546295859.9119,114.58174904942966,1406.5934065934066
1650546295860.146,114.58174904942966,1401.4652014652013
1650546295885.0278,114.58174904942966,1397.8021978021977
1650546295886.028,114.58174904942966,1393.4065934065934
1650546295886.133,114.58174904942966,1392.6739926739926
1650546295907.54,114.51476176556562,1390.4761904761904
1650546295908.89,114.4478527607362,1389.7435897435896
1650546295909.995,114.51476176556562,1387.5457875457876
1650546295934.8618,114.4478527607362,1385.3479853479853
1650546295935.01,114.51476176556562,1382.4175824175823
1650546295961.278,114.51476176556562,1380.952380952381
1650546295962.556,114.51476176556562,1379.4871794871794
1650546295962.976,114.4478527607362,1378.021978021978
1650546295973.766,114.38102189781021,1375.8241758241757
1650546295974.953,114.4478527607362,1374.3589743589744
1650546295976.222,114.4478527607362,1371.4285714285713
1650546295976.457,114.38102189781021,1369.230769230769
1650546296005.1091,114.38102189781021,1367.032967032967
1650546296006.317,114.38102189781021,1368.4981684981683
1650546296025.043,114.38102189781021,1369.9633699633698
1650546296025.291,114.38102189781021,1372.8937728937728
1650546296026.576,114.31426903997665,1374.3589743589744
1650546296027.529,114.38102189781021,1374.3589743589744
1650546296041.281,114.38102189781021,1375.8241758241757
1650546296041.584,114.31426903997665,1378.7545787545787
1650546296043.239,114.31426903997665,1383.150183150183
1650546296071.744,114.24759405074366,1388.278388278388
1650546296072.557,114.31426903997665,1390.4761904761904
1650546296072.76,114.24759405074366,1394.8717948717947
1650546296090.076,114.24759405074366,1397.069597069597
1650546296091.269,114.31426903997665,1397.8021978021977
1650546296100.208,114.24759405074366,1397.8021978021977
1650546296145.052,114.18099679393762,1395.6043956043954
1650546296145.221,114.24759405074366,1391.9413919413919
1650546296146.378,114.24759405074366,1387.5457875457876
1650546296147.447,114.24759405074366,1383.8827838827838
1650546296147.544,114.11447713370231,1380.2197802197802
1650546296148.7852,114.18099679393762,1375.8241758241757
1650546296150.052,114.18099679393762,1373.6263736263736
1650546296177.813,114.11447713370231,1372.161172161172
1650546296178.719,114.11447713370231,1372.161172161172
1650546296178.821,114.18099679393762,1370.6959706959706
1650546296203.885,114.18099679393762,1369.230769230769
1650546296205.013,114.11447713370231,1369.230769230769
1650546296205.183,114.04803493449782,1369.9633699633698
1650546296211.452,114.04803493449782,1369.230769230769
1650546296212.6711,114.11447713370231,1368.4981684981683
1650546296241.3289,114.04803493449782,1367.7655677655678
1650546296241.524,114.11447713370231,1367.032967032967
1650546296242.6592,114.04803493449782,1366.3003663003662
1650546296267.678,114.11447713370231,1368.4981684981683
1650546296268.899,114.04803493449782,1370.6959706959706
1650546296269.135,114.04803493449782,1373.6263736263736
1650546296273.9912,114.04803493449782,1374.3589743589744
1650546296275.1802,114.04803493449782,1376.5567765567764
1650546296302.777,114.04803493449782,1380.952380952381
1650546296303.823,113.9816700610998,1384.6153846153845
1650546296303.925,113.9816700610998,1388.278388278388
1650546296328.98,114.04803493449782,1389.7435897435896
1650546296330.113,113.9816700610998,1390.4761904761904
1650546296330.2668,113.91538237859844,1388.278388278388
1650546296331.413,113.9816700610998,1385.3479853479853
1650546296359.077,113.9816700610998,1385.3479853479853
1650546296360.322,113.84917175239757,1385.3479853479853
1650546296360.438,113.91538237859844,1383.150183150183
1650546296385.289,113.91538237859844,1378.021978021978
1650546296386.475,113.91538237859844,1374.3589743589744
1650546296393.9768,113.91538237859844,1370.6959706959706
1650546296394.143,113.84917175239757,1368.4981684981683
1650546296395.323,113.91538237859844,1367.7655677655678
1650546296400.361,113.84917175239757,1368.4981684981683
1650546296425.3271,113.84917175239757,1372.161172161172
1650546296426.3762,113.84917175239757,1373.6263736263736
1650546296426.455,113.84917175239757,1375.091575091575
1650546296450.3801,113.84917175239757,1376.5567765567764
1650546296451.396,113.84917175239757,1376.5567765567764
1650546296451.487,113.84917175239757,1375.091575091575
1650546296452.748,113.84917175239757,1372.8937728937728
1650546296481.906,113.84917175239757,1372.161172161172
1650546296482.648,113.84917175239757,1369.9633699633698
1650546296507.8,113.78303804821377,1369.9633699633698
1650546296508.012,113.84917175239757,1367.032967032967
1650546296509.0872,113.84917175239757,1365.5677655677655
1650546296514.0159,113.78303804821377,1365.5677655677655
1650546296514.204,113.71698113207547,1367.7655677655678
1650546296515.3142,113.78303804821377,1368.4981684981683
1650546296542.7908,113.78303804821377,1368.4981684981683
1650546296542.978,113.78303804821377,1368.4981684981683
1650546296543.0042,113.71698113207547,1368.4981684981683
1650546296564.097,113.71698113207547,1369.230769230769
1650546296570.272,113.65100087032202,1369.9633699633698
1650546296570.39,113.78303804821377,1369.9633699633698
1650546296570.421,113.65100087032202,1371.4285714285713
1650546296579.248,113.71698113207547,1371.4285714285713
1650546296605.4111,113.71698113207547,1372.8937728937728
1650546296606.572,113.71698113207547,1373.6263736263736
1650546296606.69,113.65100087032202,1371.4285714285713
1650546296629.188,113.65100087032202,1367.032967032967
1650546296630.436,113.65100087032202,1364.8351648351647
1650546296631.5652,113.71698113207547,1364.102564102564
1650546296631.725,113.65100087032202,1365.5677655677655
1650546296660.5251,113.65100087032202,1367.032967032967
1650546296661.714,113.65100087032202,1367.7655677655678
1650546296686.6182,113.65100087032202,1367.032967032967
1650546296686.76,113.58509712960279,1364.8351648351647
1650546296688.0168,113.65100087032202,1363.3699633699632
1650546296689.239,113.58509712960279,1361.904761904762
1650546296690.393,113.65100087032202,1360.4395604395604
1650546296690.592,113.58509712960279,1360.4395604395604
1650546296715.54,113.58509712960279,1361.1721611721612
1650546296716.74,113.58509712960279,1363.3699633699632
1650546296748.04,113.58509712960279,1368.4981684981683
1650546296749.1318,113.51926977687627,1372.8937728937728
1650546296749.277,113.58509712960279,1377.2893772893772
1650546296751.758,113.58509712960279,1382.4175824175823
1650546296752.9048,113.58509712960279,1389.0109890109889
1650546296753.075,113.51926977687627,1397.069597069597
1650546296784.325,113.45351867940921,1408.058608058608
1650546296785.4868,113.51926977687627,1420.5128205128203
1650546296806.7998,113.58509712960279,1432.2344322344322
1650546296807.878,113.51926977687627,1443.956043956044
1650546296807.993,113.51926977687627,1454.212454212454
1650546296809.356,113.51926977687627,1459.3406593406592
1650546296822.9302,113.51926977687627,1462.2710622710622
1650546296823.073,113.45351867940921,1465.201465201465
1650546296848.182,113.45351867940921,1467.3992673992673
1650546296849.404,113.51926977687627,1468.8644688644688
1650546296869.274,113.51926977687627,1468.8644688644688
1650546296870.437,113.45351867940921,1467.3992673992673
1650546296870.565,113.45351867940921,1463.003663003663
1650546296871.782,113.51926977687627,1456.4102564102564
1650546296898.425,113.51926977687627,1452.7472527472526
1650546296898.569,113.45351867940921,1450.5494505494505
1650546296898.615,113.45351867940921,1449.084249084249
1650546296924.426,113.51926977687627,1445.4212454212454
1650546296925.7988,113.51926977687627,1440.2930402930401
1650546296933.028,113.38784370477569,1435.164835164835
1650546296933.166,113.45351867940921,1428.5714285714284
1650546296934.4038,113.45351867940921,1424.1758241758241
1650546296960.602,113.38784370477569,1419.047619047619
1650546296960.8171,113.32224472085623,1414.6520146520145
1650546296961.893,113.38784370477569,1410.2564102564102
1650546296989.461,113.38784370477569,1405.8608058608058
1650546296990.683,113.32224472085623,1405.128205128205
1650546296996.844,113.32224472085623,1402.197802197802
1650546296997.031,113.32224472085623,1397.069597069597
1650546296998.156,113.38784370477569,1391.9413919413919
1650546297026.822,113.38784370477569,1388.278388278388
1650546297026.99,113.32224472085623,1387.5457875457876
1650546297028.1292,113.38784370477569,1387.5457875457876
1650546297049.4438,113.38784370477569,1391.2087912087911
1650546297050.645,113.38784370477569,1394.139194139194
1650546297050.899,113.32224472085623,1397.069597069597
1650546297051.969,113.32224472085623,1398.5347985347985
1650546297058.251,113.38784370477569,1400.7326007326005
1650546297084.391,113.32224472085623,1404.3956043956043
1650546297084.5488,113.32224472085623,1405.128205128205
1650546297085.704,113.32224472085623,1406.5934065934066
1650546297110.696,113.38784370477569,1409.5238095238094
1650546297111.857,113.38784370477569,1411.7216117216117
1650546297111.974,113.25672159583695,1413.9194139194137
1650546297116.988,113.32224472085623,1415.3846153846152
1650546297118.233,113.32224472085623,1416.8498168498168
1650546297146.945,113.32224472085623,1416.117216117216
1650546297147.0898,113.32224472085623,1415.3846153846152
1650546297148.22,113.32224472085623,1413.9194139194137
1650546297168.267,113.32224472085623,1411.7216117216117
1650546297171.715,113.32224472085623,1408.7912087912086
1650546297173.1318,113.25672159583695,1405.8608058608058
1650546297173.2869,113.32224472085623,1404.3956043956043
1650546297182.09,113.25672159583695,1405.128205128205
1650546297206.907,113.32224472085623,1403.6630036630036
1650546297207.0142,113.25672159583695,1403.6630036630036
1650546297208.228,113.32224472085623,1401.4652014652013
1650546297228.2952,113.32224472085623,1397.8021978021977
1650546297229.343,113.25672159583695,1394.139194139194
1650546297238.242,113.25672159583695,1390.4761904761904
1650546297238.425,113.25672159583695,1389.0109890109889
1650546297268.291,113.25672159583695,1384.6153846153845
1650546297269.4631,113.38784370477569,1383.8827838827838
1650546297269.629,113.25672159583695,1383.150183150183
1650546297292.114,113.32224472085623,1380.952380952381
1650546297293.489,113.32224472085623,1379.4871794871794
1650546297295.786,113.25672159583695,1380.952380952381
1650546297296.109,113.25672159583695,1380.952380952381
1650546297297.405,113.32224472085623,1380.952380952381
1650546297324.5562,113.25672159583695,1381.6849816849815
1650546297325.917,113.32224472085623,1383.150183150183
1650546297326.1199,113.25672159583695,1385.3479853479853
1650546297348.9548,113.32224472085623,1385.3479853479853
1650546297349.597,113.25672159583695,1385.3479853479853
1650546297350.896,113.25672159583695,1384.6153846153845
1650546297359.504,113.25672159583695,1388.278388278388
1650546297359.67,113.25672159583695,1391.2087912087911
1650546297385.866,113.25672159583695,1392.6739926739926
1650546297386.983,113.25672159583695,1391.2087912087911
1650546297387.117,113.25672159583695,1391.2087912087911
1650546297408.4402,113.25672159583695,1391.2087912087911
1650546297409.647,113.25672159583695,1389.7435897435896
1650546297410.9941,113.32224472085623,1387.5457875457876
1650546297438.719,113.25672159583695,1386.8131868131868
1650546297439.0261,113.19127419820862,1387.5457875457876
1650546297439.5872,113.32224472085623,1386.8131868131868
1650546297468.2878,113.25672159583695,1386.8131868131868
1650546297468.43,113.19127419820862,1386.8131868131868
1650546297469.6792,113.25672159583695,1386.8131868131868
1650546297470.873,113.25672159583695,1387.5457875457876
1650546297479.6792,113.32224472085623,1388.278388278388
1650546297480.829,113.25672159583695,1390.4761904761904
1650546297481.039,113.25672159583695,1390.4761904761904
1650546297507.241,113.25672159583695,1391.2087912087911
1650546297508.2769,113.32224472085623,1390.4761904761904
1650546297508.417,113.25672159583695,1389.0109890109889
1650546297529.788,113.32224472085623,1386.080586080586
1650546297530.978,113.32224472085623,1383.8827838827838
1650546297537.191,113.32224472085623,1383.150183150183
1650546297584.648,113.25672159583695,1382.4175824175823
1650546297584.826,113.25672159583695,1383.150183150183
1650546297586.0059,113.32224472085623,1383.150183150183
1650546297587.098,113.32224472085623,1383.150183150183
1650546297587.258,113.25672159583695,1385.3479853479853
1650546297588.5042,113.25672159583695,1385.3479853479853
1650546297619.663,113.32224472085623,1383.8827838827838
1650546297619.793,113.32224472085623,1378.7545787545787
1650546297619.8298,113.32224472085623,1374.3589743589744
1650546297620.955,113.32224472085623,1372.161172161172
1650546297646.038,113.32224472085623,1371.4285714285713
1650546297647.068,113.32224472085623,1371.4285714285713
1650546297647.1418,113.32224472085623,1373.6263736263736
1650546297653.666,113.38784370477569,1375.8241758241757
1650546297654.84,113.38784370477569,1378.021978021978
1650546297663.431,113.32224472085623,1379.4871794871794
1650546297688.486,113.32224472085623,1380.2197802197802
1650546297688.678,113.32224472085623,1377.2893772893772
1650546297689.737,113.38784370477569,1373.6263736263736
1650546297708.459,113.38784370477569,1370.6959706959706
1650546297708.6711,113.25672159583695,1369.9633699633698
1650546297709.776,113.38784370477569,1369.230769230769
1650546297711.097,113.38784370477569,1367.7655677655678
1650546297738.423,113.38784370477569,1366.3003663003662
1650546297739.6072,113.32224472085623,1366.3003663003662
1650546297739.6929,113.38784370477569,1370.6959706959706
1650546297767.447,113.38784370477569,1378.021978021978
1650546297768.5571,113.45351867940921,1389.0109890109889
1650546297768.828,113.32224472085623,1403.6630036630036
1650546297769.857,113.38784370477569,1420.5128205128203
1650546297778.633,113.45351867940921,1438.095238095238
1650546297803.462,113.32224472085623,1455.6776556776556
1650546297803.648,113.38784370477569,1470.3296703296703
1650546297804.786,113.45351867940921,1483.5164835164835
1650546297831.117,113.45351867940921,1497.4358974358972
1650546297832.234,113.45351867940921,1508.4249084249084
1650546297832.3628,113.38784370477569,1517.216117216117
1650546297837.39,113.45351867940921,1521.6117216117216
1650546297838.573,113.45351867940921,1525.2747252747251
1650546297864.954,113.32224472085623,1527.4725274725274
1650546297865.956,113.38784370477569,1523.8095238095236
1650546297866.07,113.51926977687627,1520.14652014652
1650546297888.761,113.45351867940921,1513.5531135531135
1650546297889.7532,113.51926977687627,1504.7619047619046
1650546297889.8772,113.45351867940921,1494.5054945054944
1650546297899.869,113.45351867940921,1482.051282051282
1650546297930.063,113.51926977687627,1468.8644688644688
1650546297931.103,113.51926977687627,1458.6080586080584
1650546297931.261,113.45351867940921,1450.5494505494505
1650546297931.313,113.45351867940921,1442.4908424908424
1650546297949.9868,113.51926977687627,1436.6300366300366
1650546297951.0642,113.51926977687627,1430.03663003663
1650546297951.212,113.51926977687627,1426.3736263736262
1650546297952.398,113.58509712960279,1423.4432234432234
1650546297977.426,113.51926977687627,1422.7106227106226
1650546297978.625,113.51926977687627,1421.9780219780218
1650546298003.713,113.51926977687627,1421.245421245421
1650546298003.8828,113.51926977687627,1418.3150183150183
1650546298004.926,113.58509712960279,1413.9194139194137
1650546298013.598,113.58509712960279,1413.1868131868132
1650546298013.785,113.51926977687627,1414.6520146520145
1650546298014.957,113.58509712960279,1414.6520146520145
1650546298039.977,113.58509712960279,1414.6520146520145
1650546298041.1812,113.65100087032202,1416.117216117216
1650546298066.322,113.58509712960279,1421.9780219780218
1650546298066.622,113.58509712960279,1427.106227106227
1650546298068.1619,113.65100087032202,1431.5018315018315
1650546298071.3042,113.58509712960279,1435.8974358974358
1650546298071.5688,113.58509712960279,1438.8278388278388
1650546298081.197,113.58509712960279,1443.2234432234432
1650546298114.82,113.65100087032202,1447.6190476190475
1650546298115.0679,113.65100087032202,1451.2820512820513
1650546298115.295,113.65100087032202,1454.212454212454
1650546298131.241,113.65100087032202,1457.8754578754579
1650546298132.477,113.65100087032202,1457.142857142857
1650546298133.84,113.58509712960279,1457.142857142857
1650546298134.085,113.65100087032202,1452.7472527472526
1650546298142.5,113.71698113207547,1449.084249084249
1650546298170.0088,113.65100087032202,1447.6190476190475
1650546298171.237,113.65100087032202,1446.153846153846
1650546298183.753,113.65100087032202,1444.6886446886447
1650546298183.948,113.65100087032202,1441.7582417582416
1650546298185.035,113.71698113207547,1439.5604395604394
1650546298201.177,113.71698113207547,1437.3626373626373
1650546298201.3372,113.65100087032202,1435.164835164835
1650546298202.423,113.71698113207547,1430.03663003663
1650546298228.896,113.78303804821377,1424.1758241758241
1650546298229.95,113.78303804821377,1416.117216117216
1650546298244.993,113.78303804821377,1410.2564102564102
1650546298245.158,113.78303804821377,1405.8608058608058
1650546298246.943,113.78303804821377,1401.4652014652013
1650546298259.918,113.78303804821377,1397.069597069597
1650546298260.052,113.71698113207547,1393.4065934065934
1650546298287.6,113.78303804821377,1388.278388278388
1650546298288.796,113.71698113207547,1386.080586080586
1650546298307.583,113.78303804821377,1387.5457875457876
1650546298308.558,113.71698113207547,1391.2087912087911
1650546298308.868,113.84917175239757,1394.139194139194
1650546298310.072,113.84917175239757,1398.5347985347985
1650546298323.7031,113.84917175239757,1399.2673992673992
1650546298323.854,113.78303804821377,1401.4652014652013
1650546298350.1091,113.91538237859844,1403.6630036630036
1650546298351.346,113.91538237859844,1407.3260073260071
1650546298371.208,113.91538237859844,1410.2564102564102
1650546298372.529,113.84917175239757,1412.4542124542124
1650546298372.677,113.84917175239757,1415.3846153846152
1650546298373.873,113.91538237859844,1415.3846153846152
1650546298382.569,113.84917175239757,1415.3846153846152
1650546298382.746,113.91538237859844,1413.9194139194137
1650546298408.8608,113.91538237859844,1410.989010989011
1650546298410.182,113.91538237859844,1411.7216117216117
1650546298430.1199,113.91538237859844,1411.7216117216117
1650546298431.322,113.91538237859844,1410.2564102564102
1650546298431.5122,113.91538237859844,1408.058608058608
1650546298432.6128,113.91538237859844,1405.128205128205
1650546298461.3281,113.9816700610998,1402.197802197802
1650546298461.591,113.91538237859844,1400.0
1650546298462.675,113.9816700610998,1394.8717948717947
1650546298487.684,113.9816700610998,1391.2087912087911
1650546298488.7148,113.9816700610998,1386.8131868131868
1650546298491.229,113.91538237859844,1381.6849816849815
1650546298491.3508,113.9816700610998,1377.2893772893772
1650546298494.271,113.9816700610998,1377.2893772893772
1650546298525.043,113.91538237859844,1379.4871794871794
1650546298525.196,113.91538237859844,1381.6849816849815
1650546298526.391,113.9816700610998,1383.150183150183
1650546298527.74,113.9816700610998,1385.3479853479853
1650546298548.799,114.04803493449782,1388.278388278388
1650546298548.9668,113.9816700610998,1389.7435897435896
1650546298550.228,114.04803493449782,1387.5457875457876
1650546298558.964,114.04803493449782,1383.8827838827838
1650546298593.831,114.04803493449782,1379.4871794871794
1650546298594.048,114.04803493449782,1375.091575091575
1650546298595.181,114.04803493449782,1371.4285714285713
1650546298610.1611,114.04803493449782,1368.4981684981683
1650546298611.236,114.11447713370231,1367.7655677655678
1650546298611.291,114.04803493449782,1369.230769230769
1650546298612.693,114.11447713370231,1372.161172161172
1650546298621.65,114.11447713370231,1374.3589743589744
1650546298646.5051,114.11447713370231,1378.021978021978
1650546298646.7349,114.11447713370231,1381.6849816849815
1650546298647.805,114.11447713370231,1384.6153846153845
1650546298670.205,114.11447713370231,1385.3479853479853
1650546298671.343,114.11447713370231,1385.3479853479853
1650546298671.4448,114.11447713370231,1386.080586080586
1650546298672.7258,114.18099679393762,1388.278388278388
1650546298697.792,114.11447713370231,1390.4761904761904
1650546298698.831,114.18099679393762,1391.9413919413919
1650546298698.999,114.04803493449782,1392.6739926739926
1650546298723.9521,114.18099679393762,1394.8717948717947
1650546298725.146,114.24759405074366,1397.069597069597
1650546298738.879,114.24759405074366,1400.0
1650546298740.198,114.18099679393762,1403.6630036630036
1650546298740.4338,114.24759405074366,1411.7216117216117
1650546298766.5032,114.24759405074366,1425.6410256410256
1650546298767.578,114.18099679393762,1443.2234432234432
1650546298767.967,114.11447713370231,1460.8058608058607
1650546298793.0269,114.31426903997665,1480.5860805860805
1650546298794.007,114.24759405074366,1501.098901098901
1650546298796.511,114.31426903997665,1520.14652014652
1650546298796.783,114.18099679393762,1539.9267399267399
1650546298797.789,114.24759405074366,1556.7765567765566
1650546298822.845,114.24759405074366,1572.161172161172
1650546298823.858,114.31426903997665,1583.8827838827838
1650546298823.967,114.24759405074366,1593.4065934065934
1650546298849.122,114.31426903997665,1600.0
1650546298850.252,114.31426903997665,1600.0
1650546298857.688,114.31426903997665,1595.6043956043954
1650546298859.094,114.24759405074366,1589.7435897435896
1650546298859.245,114.31426903997665,1582.4175824175823
1650546298889.04,114.31426903997665,1571.4285714285713
1650546298890.101,114.31426903997665,1558.974358974359
1650546298890.162,114.24759405074366,1545.7875457875457
1650546298916.675,114.31426903997665,1533.3333333333333
1650546298918.049,114.31426903997665,1524.5421245421244
1650546298922.6748,114.31426903997665,1514.2857142857142
1650546298923.888,114.31426903997665,1506.227106227106
1650546298924.016,114.38102189781021,1500.3663003663003
1650546298949.1602,114.31426903997665,1495.2380952380952
1650546298950.1902,114.31426903997665,1490.8424908424906
1650546298950.325,114.24759405074366,1488.6446886446886
1650546298975.3772,114.38102189781021,1486.4468864468863
1650546298977.8792,114.31426903997665,1484.2490842490843
1650546298978.974,114.4478527607362,1481.3186813186812
1650546299005.238,114.31426903997665,1476.923076923077
1650546299005.403,114.38102189781021,1472.5274725274724
1650546299006.578,114.31426903997665,1467.3992673992673
1650546299029.639,114.38102189781021,1459.3406593406592
1650546299029.8718,114.38102189781021,1456.4102564102564
1650546299030.322,114.38102189781021,1455.6776556776556
1650546299031.6228,114.38102189781021,1457.8754578754579
1650546299040.9182,114.38102189781021,1460.07326007326
1650546299065.358,114.38102189781021,1464.4688644688645
1650546299065.5662,114.4478527607362,1469.5970695970695
1650546299066.756,114.38102189781021,1476.923076923077
1650546299086.584,114.51476176556562,1485.7142857142856
1650546299086.811,114.38102189781021,1493.7728937728937
1650546299087.857,114.4478527607362,1500.3663003663003
1650546299089.672,114.4478527607362,1509.1575091575091
1650546299102.8088,114.4478527607362,1516.4835164835163
1650546299132.838,114.4478527607362,1521.6117216117216
1650546299133.1091,114.4478527607362,1525.2747252747251
1650546299134.095,114.4478527607362,1527.4725274725274
1650546299147.8801,114.51476176556562,1525.2747252747251
1650546299148.1719,114.4478527607362,1518.6813186813185
1650546299149.143,114.51476176556562,1509.89010989011
1650546299150.496,114.51476176556562,1501.098901098901
1650546299176.5972,114.51476176556562,1493.7728937728937
1650546299176.845,114.51476176556562,1487.179487179487
1650546299205.597,114.58174904942966,1477.6556776556777
1650546299205.7358,114.58174904942966,1468.8644688644688
1650546299212.879,114.51476176556562,1461.5384615384614
1650546299213.0662,114.51476176556562,1454.9450549450548
1650546299214.163,114.58174904942966,1451.2820512820513
1650546299215.386,114.58174904942966,1451.2820512820513
1650546299242.1702,114.58174904942966,1451.2820512820513
1650546299242.406,114.51476176556562,1451.2820512820513
1650546299242.888,114.51476176556562,1448.3516483516482
1650546299271.709,114.51476176556562,1445.4212454212454
1650546299272.762,114.58174904942966,1441.7582417582416
1650546299272.848,114.4478527607362,1437.3626373626373
1650546299274.175,114.51476176556562,1433.6996336996335
1650546299275.424,114.51476176556562,1430.03663003663
1650546299305.306,114.51476176556562,1425.6410256410256
1650546299306.594,114.4478527607362,1421.245421245421
1650546299343.6602,114.51476176556562,1418.3150183150183
1650546299343.82,114.4478527607362,1415.3846153846152
1650546299343.853,114.4478527607362,1413.1868131868132
1650546299343.88,114.38102189781021,1412.4542124542124
1650546299343.9072,114.38102189781021,1410.989010989011
1650546299364.306,114.38102189781021,1410.989010989011
1650546299365.306,114.38102189781021,1410.2564102564102
1650546299365.4001,114.4478527607362,1409.5238095238094
1650546299386.698,114.4478527607362,1405.8608058608058
1650546299387.9531,114.4478527607362,1402.9304029304028
1650546299392.715,114.24759405074366,1402.9304029304028
1650546299392.97,114.31426903997665,1404.3956043956043
1650546299393.008,114.4478527607362,1404.3956043956043
1650546299425.471,114.31426903997665,1403.6630036630036
1650546299426.5398,114.4478527607362,1401.4652014652013
1650546299448.024,114.38102189781021,1400.7326007326005
1650546299448.2378,114.4478527607362,1397.8021978021977
1650546299449.269,114.38102189781021,1393.4065934065934
1650546299450.348,114.31426903997665,1389.7435897435896
1650546299450.5032,114.4478527607362,1388.278388278388
1650546299451.7441,114.38102189781021,1391.2087912087911
1650546299484.253,114.38102189781021,1394.139194139194
1650546299485.328,114.4478527607362,1394.8717948717947
1650546299513.624,114.4478527607362,1397.069597069597
1650546299513.886,114.4478527607362,1400.0
1650546299515.982,114.4478527607362,1403.6630036630036
1650546299516.2302,114.4478527607362,1404.3956043956043
1650546299516.264,114.38102189781021,1405.128205128205
1650546299516.732,114.4478527607362,1402.9304029304028
1650546299542.988,114.31426903997665,1400.0
1650546299544.084,114.4478527607362,1397.069597069597
1650546299544.176,114.4478527607362,1394.139194139194
1650546299566.7861,114.4478527607362,1389.7435897435896
1650546299568.013,114.38102189781021,1384.6153846153845
1650546299569.095,114.4478527607362,1379.4871794871794
1650546299569.196,114.4478527607362,1377.2893772893772
1650546299583.184,114.4478527607362,1372.8937728937728
1650546299609.2898,114.4478527607362,1372.161172161172
1650546299610.522,114.38102189781021,1373.6263736263736
1650546299610.845,114.38102189781021,1374.3589743589744
1650546299633.094,114.4478527607362,1376.5567765567764
1650546299634.267,114.4478527607362,1378.021978021978
1650546299635.449,114.4478527607362,1380.2197802197802
1650546299635.632,114.4478527607362,1380.2197802197802
1650546299660.5488,114.4478527607362,1378.7545787545787
1650546299661.853,114.4478527607362,1375.091575091575
1650546299686.789,114.51476176556562,1371.4285714285713
1650546299688.026,114.4478527607362,1369.230769230769
1650546299688.284,114.4478527607362,1367.032967032967
1650546299689.347,114.51476176556562,1367.032967032967
1650546299698.028,114.51476176556562,1367.032967032967
1650546299698.274,114.4478527607362,1368.4981684981683
1650546299724.417,114.4478527607362,1372.161172161172
1650546299725.565,114.4478527607362,1375.091575091575
1650546299750.585,114.51476176556562,1377.2893772893772
1650546299753.0078,114.4478527607362,1378.7545787545787
1650546299753.201,114.4478527607362,1380.952380952381
1650546299754.3198,114.51476176556562,1383.150183150183
1650546299755.481,114.51476176556562,1384.6153846153845
1650546299755.6301,114.4478527607362,1387.5457875457876
1650546299788.1702,114.4478527607362,1390.4761904761904
1650546299789.335,114.51476176556562,1396.3369963369962
1650546299811.806,114.51476176556562,1405.128205128205
1650546299812.999,114.51476176556562,1416.117216117216
1650546299813.138,114.51476176556562,1430.7692307692307
1650546299814.461,114.51476176556562,1451.2820512820513
1650546299820.499,114.51476176556562,1476.1904761904761
1650546299820.658,114.4478527607362,1501.8315018315018
1650546299845.748,114.51476176556562,1528.2051282051282
1650546299846.866,114.58174904942966,1558.974358974359
1650546299870.606,114.51476176556562,1592.6739926739926
1650546299871.808,114.51476176556562,1623.4432234432234
1650546299871.997,114.58174904942966,1651.2820512820513
1650546299873.101,114.51476176556562,1676.923076923077
1650546299882.0852,114.51476176556562,1696.7032967032967
1650546299882.346,114.4478527607362,1708.4249084249084
1650546299907.0881,114.58174904942966,1713.5531135531135
1650546299908.206,114.51476176556562,1713.5531135531135
1650546299930.486,114.58174904942966,1706.9597069597069
1650546299931.704,114.58174904942966,1695.2380952380952
1650546299931.772,114.58174904942966,1681.3186813186812
1650546299933.084,114.58174904942966,1667.3992673992673
1650546299960.5342,114.51476176556562,1652.0146520146518
1650546299960.677,114.51476176556562,1638.8278388278386
1650546299961.822,114.58174904942966,1627.106227106227
1650546299987.011,114.58174904942966,1617.5824175824175
1650546299988.066,114.58174904942966,1608.058608058608
1650546299988.194,114.51476176556562,1600.0
1650546299988.225,114.58174904942966,1591.9413919413919
1650546299996.912,114.58174904942966,1583.8827838827838
1650546300021.769,114.58174904942966,1575.091575091575
1650546300021.873,114.51476176556562,1566.3003663003662
1650546300023.152,114.58174904942966,1559.7069597069597
1650546300048.148,114.58174904942966,1553.113553113553
1650546300049.238,114.58174904942966,1544.3223443223442
1650546300049.375,114.58174904942966,1537.7289377289376
1650546300058.275,114.64881474978051,1530.4029304029302
1650546300059.469,114.58174904942966,1523.8095238095236
1650546300084.3862,114.64881474978051,1518.6813186813185
1650546300084.654,114.58174904942966,1517.216117216117
1650546300085.667,114.58174904942966,1515.018315018315
1650546300110.6719,114.64881474978051,1516.4835164835163
1650546300111.758,114.64881474978051,1520.8791208791208
1650546300111.86,114.64881474978051,1526.7399267399267
1650546300115.686,114.64881474978051,1534.7985347985348
1650546300144.5369,114.64881474978051,1542.8571428571427
1650546300145.63,114.58174904942966,1550.9157509157508
1650546300145.844,114.58174904942966,1558.2417582417581
1650546300174.4512,114.64881474978051,1562.6373626373625
1650546300175.673,114.71595900439239,1566.3003663003662
1650546300178.142,114.58174904942966,1569.230769230769
1650546300179.81,114.64881474978051,1569.230769230769
1650546300180.013,114.64881474978051,1568.4981684981683
1650546300204.528,114.71595900439239,1564.8351648351647
1650546300205.729,114.51476176556562,1562.6373626373625
1650546300228.2888,114.58174904942966,1559.7069597069597
1650546300229.798,114.71595900439239,1555.311355311355
1650546300230.6719,114.64881474978051,1549.4505494505493
1650546300231.8052,114.71595900439239,1542.1245421245421
1650546300231.975,114.64881474978051,1535.5311355311355
1650546300238.28,114.64881474978051,1528.937728937729
1650546300267.096,114.64881474978051,1521.6117216117216
1650546300268.12,114.71595900439239,1512.8205128205127
1650546300268.359,114.64881474978051,1503.2967032967033
1650546300293.342,114.71595900439239,1495.2380952380952
1650546300294.6328,114.71595900439239,1487.9120879120878
1650546300295.655,114.71595900439239,1481.3186813186812
1650546300295.906,114.64881474978051,1476.1904761904761
1650546300298.247,114.71595900439239,1471.7948717948716
1650546300326.997,114.64881474978051,1467.3992673992673
1650546300352.101,114.78318195136244,1461.5384615384614
1650546300352.324,114.71595900439239,1458.6080586080584
1650546300353.215,114.64881474978051,1454.212454212454
1650546300354.468,114.71595900439239,1449.8168498168498
1650546300363.116,114.71595900439239,1446.8864468864467
1650546300388.295,114.71595900439239,1444.6886446886447
1650546300388.512,114.71595900439239,1441.7582417582416
1650546300390.028,114.71595900439239,1439.5604395604394
1650546300411.932,114.78318195136244,1437.3626373626373
1650546300412.092,114.71595900439239,1435.8974358974358
1650546300413.279,114.78318195136244,1430.7692307692307
1650546300414.5059,114.71595900439239,1426.3736263736262
1650546300415.605,114.78318195136244,1421.9780219780218
1650546300440.707,114.71595900439239,1420.5128205128203
1650546300440.919,114.78318195136244,1420.5128205128203
1650546300442.094,114.71595900439239,1421.245421245421
1650546300464.4111,114.78318195136244,1421.9780219780218
1650546300464.588,114.71595900439239,1422.7106227106226
1650546300465.7668,114.78318195136244,1423.4432234432234
1650546300466.9758,114.78318195136244,1423.4432234432234
1650546300475.707,114.78318195136244,1425.6410256410256
1650546300475.904,114.71595900439239,1429.3040293040292
1650546300503.551,114.8504837291117,1430.03663003663
1650546300504.466,114.78318195136244,1430.03663003663
1650546300529.4412,114.78318195136244,1427.106227106227
1650546300529.595,114.78318195136244,1424.9084249084249
1650546300530.769,114.78318195136244,1421.9780219780218
1650546300534.484,114.8504837291117,1419.047619047619
1650546300535.5881,114.78318195136244,1417.5824175824175
1650546300561.98,114.78318195136244,1415.3846153846152
1650546300562.182,114.78318195136244,1412.4542124542124
1650546300563.298,114.78318195136244,1410.2564102564102
1650546300591.9722,114.78318195136244,1411.7216117216117
1650546300592.209,114.78318195136244,1413.1868131868132
1650546300594.5571,114.8504837291117,1411.7216117216117
1650546300597.005,114.8504837291117,1406.5934065934066
1650546300598.192,114.78318195136244,1402.9304029304028
1650546300628.417,114.78318195136244,1400.7326007326005
1650546300628.9001,114.78318195136244,1400.0
1650546300629.625,114.8504837291117,1398.5347985347985
1650546300652.0232,114.8504837291117,1397.8021978021977
1650546300652.239,114.78318195136244,1395.6043956043954
1650546300653.2769,114.8504837291117,1393.4065934065934
1650546300654.51,114.78318195136244,1391.2087912087911
1650546300679.464,114.8504837291117,1386.8131868131868
1650546300679.6018,114.78318195136244,1383.150183150183
1650546300680.836,114.8504837291117,1379.4871794871794
1650546300689.7148,114.8504837291117,1378.7545787545787
1650546300690.69,114.8504837291117,1378.7545787545787
1650546300690.81,114.8504837291117,1380.2197802197802
1650546300709.7239,114.8504837291117,1379.4871794871794
1650546300711.629,114.78318195136244,1378.7545787545787
1650546300724.5679,114.8504837291117,1379.4871794871794
1650546300750.781,114.8504837291117,1379.4871794871794
1650546300751.02,114.8504837291117,1380.952380952381
1650546300752.123,114.8504837291117,1382.4175824175823
1650546300770.835,114.8504837291117,1383.8827838827838
1650546300771.038,114.8504837291117,1386.8131868131868
1650546300773.363,114.8504837291117,1390.4761904761904
1650546300774.688,114.8504837291117,1391.9413919413919
1650546300804.457,114.78318195136244,1394.8717948717947
1650546300805.697,114.8504837291117,1394.139194139194
1650546300805.836,114.78318195136244,1392.6739926739926
1650546300830.854,114.8504837291117,1394.139194139194
1650546300831.9458,114.8504837291117,1397.069597069597
1650546300832.063,114.8504837291117,1405.8608058608058
1650546300833.416,114.8504837291117,1418.3150183150183
1650546300842.158,114.91786447638604,1438.095238095238
1650546300868.293,114.8504837291117,1462.2710622710622
1650546300868.49,114.8504837291117,1493.040293040293
1650546300869.602,114.91786447638604,1527.4725274725274
1650546300895.855,114.8504837291117,1561.9047619047617
1650546300897.018,114.91786447638604,1594.8717948717947
1650546300897.209,114.8504837291117,1626.3736263736262
1650546300898.416,114.8504837291117,1654.9450549450548
1650546300899.673,114.8504837291117,1679.120879120879
1650546300947.062,114.78318195136244,1698.168498168498
1650546300948.2441,114.8504837291117,1710.6227106227104
1650546300948.4028,114.91786447638604,1715.7509157509157
1650546300949.6301,114.8504837291117,1715.7509157509157
1650546300950.856,114.8504837291117,1710.6227106227104
1650546300951.062,114.91786447638604,1696.7032967032967
1650546300955.8909,114.91786447638604,1678.3882783882782
1650546300986.061,114.8504837291117,1658.6080586080584
1650546300987.039,114.91786447638604,1635.164835164835
1650546300987.2341,114.8504837291117,1612.4542124542124
1650546300988.441,114.91786447638604,1590.4761904761904
1650546301013.504,114.91786447638604,1569.230769230769
1650546301014.524,114.91786447638604,1551.6483516483515
1650546301014.7751,114.91786447638604,1536.263736263736
1650546301015.879,114.98532433225712,1523.0769230769229
1650546301044.5881,114.8504837291117,1514.2857142857142
1650546301045.803,114.91786447638604,1509.1575091575091
1650546301068.3,114.91786447638604,1505.4945054945053
1650546301068.43,114.91786447638604,1501.098901098901
1650546301069.69,114.8504837291117,1497.4358974358972
1650546301070.776,114.91786447638604,1493.040293040293
1650546301070.965,114.8504837291117,1490.8424908424906
1650546301084.644,114.91786447638604,1490.8424908424906
1650546301109.668,114.8504837291117,1490.8424908424906
1650546301110.796,114.91786447638604,1489.3772893772893
1650546301110.977,114.91786447638604,1487.9120879120878
1650546301135.9502,114.8504837291117,1487.9120879120878
1650546301137.1428,114.91786447638604,1490.10989010989
1650546301140.841,114.91786447638604,1494.5054945054944
1650546301141.113,114.91786447638604,1498.168498168498
1650546301142.156,114.98532433225712,1504.7619047619046
1650546301168.4119,114.91786447638604,1512.087912087912
1650546301169.769,114.98532433225712,1517.9487179487178
1650546301189.7932,114.91786447638604,1523.8095238095236
1650546301189.964,114.98532433225712,1526.7399267399267
1650546301190.922,114.8504837291117,1529.6703296703295
1650546301192.026,114.98532433225712,1530.4029304029302
1650546301192.147,114.91786447638604,1531.135531135531
1650546301217.139,114.91786447638604,1528.937728937729
1650546301218.3918,114.91786447638604,1524.5421245421244
1650546301248.3872,114.98532433225712,1519.4139194139193
1650546301253.443,114.91786447638604,1515.018315018315
1650546301253.639,114.98532433225712,1510.6227106227104
1650546301262.167,114.98532433225712,1505.4945054945053
1650546301291.452,114.98532433225712,1498.9010989010987
1650546301291.709,114.98532433225712,1493.040293040293
1650546301292.189,114.98532433225712,1486.4468864468863
1650546301308.5488,114.98532433225712,1476.923076923077
1650546301309.591,114.98532433225712,1466.6666666666665
1650546301310.889,114.91786447638604,1456.4102564102564
1650546301311.066,114.98532433225712,1446.153846153846
1650546301312.205,114.98532433225712,1437.3626373626373
1650546301320.8079,115.05286343612335,1430.7692307692307
1650546301320.971,114.91786447638604,1429.3040293040292
1650546301349.9702,115.05286343612335,1429.3040293040292
1650546301351.024,115.05286343612335,1430.03663003663
1650546301372.266,115.05286343612335,1429.3040293040292
1650546301373.2988,114.98532433225712,1429.3040293040292
1650546301373.53,114.98532433225712,1427.106227106227
1650546301374.731,115.05286343612335,1424.9084249084249
1650546301384.554,115.05286343612335,1419.7802197802198
1650546301384.704,114.98532433225712,1416.8498168498168
1650546301410.906,115.05286343612335,1415.3846153846152
1650546301412.184,114.98532433225712,1414.6520146520145
1650546301430.82,115.05286343612335,1412.4542124542124
1650546301430.967,114.98532433225712,1412.4542124542124
1650546301432.162,115.05286343612335,1410.2564102564102
1650546301433.5078,115.05286343612335,1407.3260073260071
1650546301458.3682,115.05286343612335,1406.5934065934066
1650546301458.569,114.98532433225712,1406.5934065934066
1650546301459.6912,115.05286343612335,1407.3260073260071
1650546301484.8289,115.05286343612335,1408.058608058608
1650546301485.8389,114.91786447638604,1410.2564102564102
1650546301495.833,114.98532433225712,1409.5238095238094
1650546301495.982,115.05286343612335,1409.5238095238094
1650546301497.201,115.05286343612335,1410.2564102564102
1650546301522.1301,115.05286343612335,1409.5238095238094
1650546301522.29,114.98532433225712,1409.5238095238094
1650546301524.332,115.05286343612335,1405.8608058608058
1650546301549.783,115.05286343612335,1402.197802197802
1650546301553.769,115.05286343612335,1399.2673992673992
1650546301554.015,115.05286343612335,1398.5347985347985
1650546301554.057,115.05286343612335,1397.8021978021977
1650546301561.0,115.05286343612335,1397.069597069597
1650546301585.887,114.98532433225712,1398.5347985347985
1650546301586.0159,114.98532433225712,1398.5347985347985
1650546301587.1838,115.05286343612335,1399.2673992673992
1650546301608.702,115.05286343612335,1397.8021978021977
1650546301609.618,115.05286343612335,1394.8717948717947
1650546301610.86,115.05286343612335,1391.2087912087911
1650546301611.01,115.05286343612335,1389.0109890109889
1650546301626.558,115.05286343612335,1388.278388278388
1650546301650.871,115.05286343612335,1385.3479853479853
1650546301651.063,115.05286343612335,1384.6153846153845
1650546301652.211,115.05286343612335,1381.6849816849815
1650546301672.968,115.05286343612335,1381.6849816849815
1650546301673.1418,115.05286343612335,1382.4175824175823
1650546301673.203,115.05286343612335,1384.6153846153845
1650546301673.241,115.05286343612335,1385.3479853479853
1650546301684.763,115.05286343612335,1386.8131868131868
1650546301710.922,115.05286343612335,1387.5457875457876
1650546301711.177,115.05286343612335,1389.0109890109889
1650546301712.293,115.12048192771084,1387.5457875457876
1650546301732.229,115.12048192771084,1384.6153846153845
1650546301733.289,115.05286343612335,1380.2197802197802
1650546301734.603,115.05286343612335,1374.3589743589744
1650546301734.753,115.12048192771084,1367.032967032967
1650546301761.037,115.05286343612335,1362.6373626373625
1650546301762.155,115.12048192771084,1358.2417582417581
1650546301762.327,115.05286343612335,1354.5787545787546
1650546301788.501,115.12048192771084,1353.113553113553
1650546301790.035,115.05286343612335,1353.113553113553
1650546301800.941,115.12048192771084,1353.8461538461538
1650546301805.734,115.12048192771084,1355.3113553113553
1650546301806.011,115.12048192771084,1356.7765567765566
1650546301827.314,115.12048192771084,1357.5091575091574
1650546301828.368,114.98532433225712,1358.2417582417581
1650546301828.554,115.12048192771084,1356.0439560439559
1650546301848.615,115.12048192771084,1355.3113553113553
1650546301849.687,115.12048192771084,1356.0439560439559
1650546301850.815,115.12048192771084,1355.3113553113553
1650546301864.758,115.12048192771084,1356.0439560439559
1650546301864.907,115.12048192771084,1359.7069597069597
1650546301890.029,115.12048192771084,1364.8351648351647
1650546301891.717,115.05286343612335,1373.6263736263736
1650546301891.936,115.12048192771084,1384.6153846153845
1650546301913.695,115.12048192771084,1402.9304029304028
1650546301915.374,115.18817994707439,1426.3736263736262
1650546301915.822,115.12048192771084,1453.4798534798533
1650546301915.9019,115.12048192771084,1485.7142857142856
1650546301924.797,115.18817994707439,1520.8791208791208
1650546301962.2751,115.12048192771084,1556.7765567765566
1650546301963.4521,115.18817994707439,1592.6739926739926
1650546301963.646,115.12048192771084,1627.106227106227
1650546301973.8901,115.18817994707439,1658.6080586080584
1650546301974.73,115.12048192771084,1686.4468864468863
1650546301975.909,115.12048192771084,1709.1575091575091
1650546302000.9739,115.12048192771084,1724.5421245421244
1650546302001.163,115.18817994707439,1734.065934065934
1650546302002.397,115.12048192771084,1733.3333333333333
1650546302030.9092,115.18817994707439,1726.7399267399267
1650546302031.068,115.18817994707439,1712.087912087912
1650546302032.205,115.18817994707439,1692.3076923076922
1650546302042.5552,115.18817994707439,1668.131868131868
1650546302043.373,115.12048192771084,1641.7582417582416
1650546302044.6611,115.18817994707439,1616.117216117216
1650546302044.932,115.18817994707439,1591.2087912087911
1650546302072.267,115.12048192771084,1569.230769230769
1650546302073.5469,115.18817994707439,1550.18315018315
1650546302073.7,115.18817994707439,1531.135531135531
1650546302089.675,115.18817994707439,1512.8205128205127
1650546302090.092,115.12048192771084,1498.168498168498
1650546302103.527,115.18817994707439,1485.7142857142856
1650546302129.7332,115.18817994707439,1477.6556776556777
1650546302129.994,115.18817994707439,1471.7948717948716
1650546302131.011,115.18817994707439,1468.8644688644688
1650546302148.597,115.18817994707439,1468.8644688644688
1650546302148.822,115.12048192771084,1471.062271062271
1650546302149.985,115.18817994707439,1474.7252747252746
1650546302151.052,115.2559576345984,1476.923076923077
1650546302164.758,115.18817994707439,1479.120879120879
1650546302199.675,115.18817994707439,1479.120879120879
1650546302199.86,115.18817994707439,1479.8534798534797
1650546302200.979,115.2559576345984,1483.5164835164835
1650546302207.261,115.18817994707439,1487.179487179487
1650546302207.5342,115.18817994707439,1489.3772893772893
1650546302210.561,115.18817994707439,1492.3076923076922
1650546302221.564,115.18817994707439,1498.168498168498
1650546302249.744,115.18817994707439,1504.0293040293038
1650546302250.026,115.18817994707439,1507.6923076923076
1650546302253.596,115.2559576345984,1512.087912087912
1650546302273.71,115.18817994707439,1514.2857142857142
1650546302274.6338,115.2559576345984,1515.7509157509157
1650546302274.782,115.2559576345984,1515.7509157509157
1650546302276.07,115.2559576345984,1513.5531135531135
1650546302277.23,115.2559576345984,1509.1575091575091
1650546302303.508,115.18817994707439,1502.5641025641025
1650546302304.6948,115.18817994707439,1498.168498168498
1650546302304.873,115.2559576345984,1493.040293040293
1650546302329.781,115.2559576345984,1490.8424908424906
1650546302330.854,115.2559576345984,1489.3772893772893
1650546302330.904,115.18817994707439,1486.4468864468863
1650546302332.205,115.2559576345984,1483.5164835164835
1650546302359.216,115.2559576345984,1476.923076923077
1650546302359.8918,115.2559576345984,1471.7948717948716
1650546302360.022,115.18817994707439,1464.4688644688645
1650546302384.769,115.2559576345984,1459.3406593406592
1650546302386.009,115.2559576345984,1452.014652014652
1650546302390.915,115.2559576345984,1443.2234432234432
1650546302391.073,115.2559576345984,1434.4322344322343
1650546302392.233,115.2559576345984,1424.9084249084249
1650546302419.926,115.2559576345984,1417.5824175824175
1650546302420.9841,115.32381513099794,1410.2564102564102
1650546302448.595,115.2559576345984,1403.6630036630036
1650546302448.7761,115.2559576345984,1399.2673992673992
1650546302451.118,115.18817994707439,1400.0
1650546302457.126,115.2559576345984,1397.8021978021977
1650546302457.253,115.2559576345984,1395.6043956043954
1650546302458.529,115.2559576345984,1391.9413919413919
1650546302486.253,115.2559576345984,1389.0109890109889
1650546302487.215,115.18817994707439,1390.4761904761904
1650546302508.6702,115.2559576345984,1391.2087912087911
1650546302508.903,115.2559576345984,1391.9413919413919
1650546302509.794,115.32381513099794,1391.9413919413919
1650546302512.2112,115.2559576345984,1392.6739926739926
1650546302512.4111,115.2559576345984,1393.4065934065934
1650546302521.003,115.2559576345984,1392.6739926739926
1650546302548.517,115.2559576345984,1391.9413919413919
1650546302548.716,115.18817994707439,1390.4761904761904
1650546302569.711,115.32381513099794,1388.278388278388
1650546302569.916,115.32381513099794,1386.080586080586
1650546302571.0051,115.2559576345984,1383.150183150183
1650546302572.135,115.2559576345984,1379.4871794871794
1650546302572.235,115.18817994707439,1378.021978021978
1650546302601.092,115.32381513099794,1377.2893772893772
1650546302602.334,115.2559576345984,1378.7545787545787
1650546302632.2861,115.32381513099794,1379.4871794871794
1650546302632.515,115.2559576345984,1379.4871794871794
1650546302632.549,115.2559576345984,1380.952380952381
1650546302636.499,115.32381513099794,1382.4175824175823
1650546302637.12,115.32381513099794,1382.4175824175823
1650546302637.1929,115.32381513099794,1383.150183150183
1650546302642.3572,115.32381513099794,1382.4175824175823
1650546302672.2788,115.2559576345984,1379.4871794871794
1650546302673.391,115.32381513099794,1376.5567765567764
1650546302673.537,115.2559576345984,1374.3589743589744
1650546302687.298,115.32381513099794,1370.6959706959706
1650546302688.502,115.32381513099794,1367.7655677655678
1650546302694.694,115.32381513099794,1364.102564102564
1650546302694.8918,115.32381513099794,1358.974358974359
1650546302721.161,115.32381513099794,1355.3113553113553
1650546302722.29,115.32381513099794,1352.3809523809523
1650546302748.6392,115.32381513099794,1349.4505494505493
1650546302749.663,115.2559576345984,1348.7179487179487
1650546302749.797,115.32381513099794,1348.7179487179487
1650546302757.2888,115.32381513099794,1346.5201465201465
1650546302758.554,115.32381513099794,1342.8571428571427
1650546302758.819,115.32381513099794,1339.194139194139
1650546302786.124,115.32381513099794,1337.7289377289376
1650546302787.484,115.32381513099794,1336.263736263736
1650546302811.11,115.32381513099794,1340.6593406593406
1650546302812.177,115.32381513099794,1342.1245421245421
1650546302812.342,115.39175257731958,1344.3223443223442
1650546302813.591,115.32381513099794,1344.3223443223442
1650546302822.267,115.39175257731958,1343.5897435897434
1650546302822.4622,115.32381513099794,1342.1245421245421
1650546302847.275,115.39175257731958,1342.1245421245421
1650546302849.8818,115.39175257731958,1343.5897435897434
1650546302868.454,115.32381513099794,1346.5201465201465
1650546302869.639,115.32381513099794,1346.5201465201465
1650546302869.7642,115.39175257731958,1345.7875457875457
1650546302871.0889,115.39175257731958,1344.3223443223442
1650546302884.718,115.32381513099794,1344.3223443223442
1650546302884.8691,115.32381513099794,1345.054945054945
1650546302911.19,115.39175257731958,1345.7875457875457
1650546302912.284,115.39175257731958,1347.2527472527472
1650546302930.124,115.32381513099794,1347.2527472527472
1650546302930.899,115.2559576345984,1345.054945054945
1650546302931.151,115.39175257731958,1342.1245421245421
1650546302932.3289,115.32381513099794,1336.263736263736
1650546302961.0159,115.39175257731958,1334.7985347985348
1650546302961.2341,115.32381513099794,1341.3919413919414
1650546302962.59,115.2559576345984,1353.8461538461538
1650546302987.292,115.32381513099794,1372.161172161172
1650546302988.397,115.32381513099794,1394.139194139194
1650546302988.523,115.32381513099794,1420.5128205128203
1650546302993.582,115.32381513099794,1450.5494505494505
1650546302994.845,115.39175257731958,1481.3186813186812
1650546303021.061,115.39175257731958,1512.8205128205127
1650546303021.314,115.39175257731958,1544.3223443223442
1650546303022.291,115.39175257731958,1575.091575091575
1650546303049.804,115.39175257731958,1602.197802197802
1650546303052.467,115.32381513099794,1627.8388278388277
1650546303052.684,115.39175257731958,1646.153846153846
1650546303052.736,115.39175257731958,1660.07326007326
1650546303061.138,115.39175257731958,1667.3992673992673
1650546303086.204,115.2559576345984,1668.131868131868
1650546303087.533,115.39175257731958,1660.8058608058607
1650546303106.156,115.39175257731958,1650.5494505494505
1650546303107.357,115.39175257731958,1635.164835164835
1650546303108.536,115.39175257731958,1616.117216117216
1650546303109.859,115.39175257731958,1596.3369963369962
1650546303110.112,115.39175257731958,1576.5567765567764
1650546303123.618,115.39175257731958,1556.0439560439559
1650546303154.875,115.39175257731958,1536.263736263736
1650546303155.3591,115.39175257731958,1516.4835164835163
1650546303155.978,115.39175257731958,1501.098901098901
1650546303173.589,115.39175257731958,1487.179487179487
1650546303173.785,115.39175257731958,1476.1904761904761
1650546303173.852,115.32381513099794,1465.201465201465
1650546303173.916,115.39175257731958,1457.8754578754579
1650546303184.9202,115.39175257731958,1449.8168498168498
1650546303210.9849,115.39175257731958,1444.6886446886447
1650546303211.144,115.39175257731958,1441.0256410256409
1650546303212.272,115.45977011494253,1435.8974358974358
1650546303231.044,115.45977011494253,1430.7692307692307
1650546303232.1929,115.39175257731958,1427.106227106227
1650546303232.362,115.39175257731958,1424.9084249084249
1650546303233.5662,115.39175257731958,1424.1758241758241
1650546303258.6628,115.32381513099794,1424.9084249084249
1650546303259.681,115.39175257731958,1428.5714285714284
1650546303259.866,115.39175257731958,1434.4322344322343
1650546303292.306,115.39175257731958,1441.7582417582416
1650546303293.3691,115.32381513099794,1446.8864468864467
1650546303293.425,115.45977011494253,1450.5494505494505
1650546303300.929,115.39175257731958,1454.9450549450548
1650546303301.099,115.39175257731958,1460.8058608058607
1650546303326.082,115.45977011494253,1463.7362637362637
1650546303327.1738,115.45977011494253,1468.131868131868
1650546303327.311,115.39175257731958,1471.7948717948716
1650546303357.376,115.45977011494253,1476.1904761904761
1650546303359.822,115.45977011494253,1476.1904761904761
1650546303360.874,115.39175257731958,1473.9926739926739
1650546303362.108,115.39175257731958,1468.8644688644688
1650546303362.194,115.39175257731958,1465.201465201465
1650546303393.79,115.39175257731958,1459.3406593406592
1650546303394.68,115.45977011494253,1451.2820512820513
1650546303394.836,115.39175257731958,1443.956043956044
1650546303408.617,115.45977011494253,1438.095238095238
1650546303409.7642,115.45977011494253,1432.2344322344322
1650546303410.938,115.45977011494253,1426.3736263736262
1650546303411.163,115.39175257731958,1417.5824175824175
1650546303425.158,115.32381513099794,1410.989010989011
1650546303449.7769,115.45977011494253,1402.9304029304028
1650546303450.874,115.45977011494253,1397.8021978021977
1650546303450.9858,115.39175257731958,1392.6739926739926
1650546303472.3352,115.45977011494253,1390.4761904761904
1650546303473.717,115.39175257731958,1386.080586080586
1650546303474.648,115.45977011494253,1381.6849816849815
1650546303502.317,115.39175257731958,1376.5567765567764
1650546303502.499,115.39175257731958,1372.8937728937728
1650546303503.5452,115.45977011494253,1367.7655677655678
1650546303523.5022,115.45977011494253,1364.102564102564
1650546303524.235,115.39175257731958,1361.904761904762
1650546303524.786,115.45977011494253,1358.974358974359
1650546303527.3408,115.45977011494253,1356.7765567765566
1650546303542.1492,115.45977011494253,1354.5787545787546
1650546303542.284,115.39175257731958,1353.8461538461538
1650546303568.647,115.45977011494253,1355.3113553113553
1650546303570.215,115.52786788557947,1356.0439560439559
1650546303570.986,115.39175257731958,1356.0439560439559
1650546303571.177,115.39175257731958,1352.3809523809523
1650546303598.643,115.39175257731958,1350.9157509157508
1650546303599.77,115.45977011494253,1349.4505494505493
1650546303600.917,115.45977011494253,1345.7875457875457
1650546303601.072,115.39175257731958,1344.3223443223442
1650546303627.359,115.45977011494253,1342.8571428571427
1650546303648.559,115.45977011494253,1342.8571428571427
1650546303649.7249,115.45977011494253,1342.8571428571427
1650546303649.879,115.45977011494253,1343.5897435897434
1650546303651.082,115.45977011494253,1345.7875457875457
1650546303652.263,115.52786788557947,1347.985347985348
1650546303704.73,115.45977011494253,1349.4505494505493
1650546303704.936,115.45977011494253,1347.985347985348
1650546303706.003,115.52786788557947,1347.985347985348
1650546303707.303,115.39175257731958,1345.054945054945
1650546303708.438,115.45977011494253,1342.8571428571427
1650546303708.6438,115.39175257731958,1342.8571428571427
1650546303709.806,115.45977011494253,1340.6593406593406
1650546303723.698,115.45977011494253,1337.7289377289376
1650546303724.602,115.45977011494253,1336.263736263736
1650546303724.677,115.45977011494253,1335.5311355311355
1650546303751.136,115.45977011494253,1336.263736263736
1650546303752.249,115.45977011494253,1336.263736263736
1650546303773.5479,115.45977011494253,1336.263736263736
1650546303773.802,115.39175257731958,1336.263736263736
1650546303774.8088,115.45977011494253,1336.9963369963368
1650546303776.075,115.52786788557947,1333.3333333333333
1650546303830.917,115.45977011494253,1330.4029304029302
1650546303831.069,115.45977011494253,1328.937728937729
1650546303832.273,115.52786788557947,1328.2051282051282
1650546303833.601,115.45977011494253,1326.007326007326
1650546303834.648,115.39175257731958,1324.5421245421244
1650546303834.788,115.45977011494253,1322.3443223443223
1650546303835.998,115.52786788557947,1322.3443223443223
1650546303843.678,115.45977011494253,1323.076923076923
1650546303868.4521,115.39175257731958,1323.076923076923
1650546303868.627,115.52786788557947,1322.3443223443223
1650546303869.8372,115.52786788557947,1324.5421245421244
1650546303894.844,115.52786788557947,1325.2747252747251
1650546303895.947,115.52786788557947,1325.2747252747251
1650546303896.1648,115.45977011494253,1322.3443223443223
1650546303897.321,115.52786788557947,1321.6117216117216
1650546303903.686,115.52786788557947,1320.8791208791208
1650546303929.933,115.39175257731958,1321.6117216117216
1650546303930.198,115.45977011494253,1320.8791208791208
1650546303933.421,115.45977011494253,1319.4139194139193
1650546303949.9111,115.52786788557947,1317.9487179487178
1650546303950.8718,115.52786788557947,1319.4139194139193
1650546303951.146,115.52786788557947,1320.8791208791208
1650546303953.584,115.52786788557947,1324.5421245421244
1650546303978.717,115.45977011494253,1327.4725274725274
1650546303979.664,115.52786788557947,1331.135531135531
1650546303979.84,115.45977011494253,1335.5311355311355
1650546304004.8262,115.52786788557947,1341.3919413919414
1650546304006.051,115.52786788557947,1345.7875457875457
1650546304012.144,115.52786788557947,1353.8461538461538
1650546304012.29,115.52786788557947,1363.3699633699632
1650546304021.103,115.45977011494253,1375.8241758241757
1650546304049.844,115.52786788557947,1392.6739926739926
1650546304050.9282,115.45977011494253,1413.9194139194137
1650546304051.128,115.45977011494253,1437.3626373626373
1650546304052.618,115.52786788557947,1463.003663003663
1650546304072.375,115.52786788557947,1489.3772893772893
1650546304073.384,115.45977011494253,1516.4835164835163
1650546304073.554,115.45977011494253,1538.4615384615383
1650546304082.261,115.45977011494253,1559.7069597069597
1650546304134.027,115.39175257731958,1574.3589743589744
1650546304134.598,115.52786788557947,1586.8131868131868
1650546304136.323,115.45977011494253,1591.9413919413919
1650546304136.591,115.45977011494253,1594.8717948717947
1650546304137.368,115.45977011494253,1591.9413919413919
1650546304138.439,115.52786788557947,1584.6153846153845
1650546304138.784,115.45977011494253,1571.4285714285713
1650546304144.778,115.39175257731958,1556.0439560439559
1650546304169.779,115.45977011494253,1535.5311355311355
1650546304170.9011,115.52786788557947,1512.8205128205127
1650546304192.379,115.45977011494253,1491.5750915750914
1650546304192.543,115.52786788557947,1473.9926739926739
1650546304192.611,115.45977011494253,1460.07326007326
1650546304192.6428,115.52786788557947,1447.6190476190475
1650546304192.672,115.45977011494253,1434.4322344322343
1650546304204.8572,115.52786788557947,1424.1758241758241
1650546304231.0332,115.52786788557947,1411.7216117216117
1650546304232.1082,115.52786788557947,1400.0
1650546304232.227,115.52786788557947,1389.0109890109889
1650546304246.0688,115.52786788557947,1381.6849816849815
1650546304247.281,115.45977011494253,1375.8241758241757
1650546304260.984,115.52786788557947,1372.161172161172
1650546304261.239,115.45977011494253,1372.161172161172
1650546304287.216,115.45977011494253,1375.091575091575
1650546304288.576,115.52786788557947,1375.8241758241757
1650546304310.934,115.59604603127767,1377.2893772893772
1650546304343.642,115.52786788557947,1379.4871794871794
1650546304343.7952,115.52786788557947,1383.150183150183
1650546304343.8262,115.52786788557947,1387.5457875457876
1650546304343.859,115.52786788557947,1389.7435897435896
1650546304343.8909,115.52786788557947,1391.2087912087911
1650546304356.031,115.52786788557947,1394.8717948717947
1650546304373.396,115.59604603127767,1397.8021978021977
1650546304373.662,115.52786788557947,1402.197802197802
1650546304373.734,115.45977011494253,1405.8608058608058
1650546304373.7742,115.52786788557947,1411.7216117216117
1650546304374.789,115.59604603127767,1417.5824175824175
1650546304383.39,115.52786788557947,1421.245421245421
1650546304383.568,115.52786788557947,1423.4432234432234
1650546304409.909,115.45977011494253,1422.7106227106226
1650546304411.01,115.52786788557947,1419.047619047619
1650546304433.5762,115.52786788557947,1415.3846153846152
1650546304434.667,115.52786788557947,1411.7216117216117
1650546304434.816,115.52786788557947,1408.058608058608
1650546304435.917,115.52786788557947,1403.6630036630036
1650546304464.612,115.59604603127767,1399.2673992673992
1650546304464.7751,115.45977011494253,1394.139194139194
1650546304465.9841,115.59604603127767,1389.0109890109889
1650546304489.76,115.52786788557947,1382.4175824175823
1650546304490.829,115.59604603127767,1378.7545787545787
1650546304491.019,115.52786788557947,1375.8241758241757
1650546304492.2322,115.52786788557947,1371.4285714285713
1650546304500.657,115.52786788557947,1364.8351648351647
1650546304529.588,115.45977011494253,1358.2417582417581
1650546304529.738,115.52786788557947,1350.9157509157508
1650546304530.8982,115.52786788557947,1344.3223443223442
1650546304544.813,115.52786788557947,1339.9267399267399
1650546304545.9001,115.52786788557947,1339.194139194139
1650546304547.083,115.52786788557947,1338.4615384615383
1650546304547.2441,115.52786788557947,1339.194139194139
1650546304561.1218,115.52786788557947,1338.4615384615383
1650546304593.636,115.59604603127767,1337.7289377289376
1650546304594.736,115.52786788557947,1338.4615384615383
1650546304612.222,115.59604603127767,1338.4615384615383
1650546304617.524,115.59604603127767,1337.7289377289376
1650546304617.6719,115.52786788557947,1339.9267399267399
1650546304617.7112,115.52786788557947,1341.3919413919414
1650546304617.744,115.52786788557947,1344.3223443223442
1650546304653.51,115.52786788557947,1345.054945054945
1650546304654.604,115.45977011494253,1345.7875457875457
1650546304654.737,115.52786788557947,1342.8571428571427
1650546304676.049,115.52786788557947,1340.6593406593406
1650546304677.174,115.52786788557947,1340.6593406593406
1650546304678.2761,115.52786788557947,1340.6593406593406
1650546304678.386,115.59604603127767,1339.194139194139
1650546304679.676,115.59604603127767,1339.194139194139
1650546304708.632,115.52786788557947,1339.194139194139
1650546304709.5488,115.52786788557947,1339.194139194139
1650546304709.689,115.59604603127767,1339.194139194139
1650546304732.2769,115.52786788557947,1339.194139194139
1650546304733.792,115.59604603127767,1336.9963369963368
1650546304734.529,115.52786788557947,1336.263736263736
1650546304734.62,115.52786788557947,1332.6007326007325
1650546304735.962,115.59604603127767,1330.4029304029302
1650546304763.529,115.52786788557947,1328.937728937729
1650546304764.602,115.59604603127767,1328.937728937729
1650546304764.8389,115.59604603127767,1329.6703296703297
1650546304789.731,115.59604603127767,1331.135531135531
1650546304790.9,115.52786788557947,1331.135531135531
1650546304795.862,115.59604603127767,1330.4029304029302
1650546304796.036,115.59604603127767,1328.937728937729
1650546304801.125,115.59604603127767,1328.937728937729
1650546304827.437,115.59604603127767,1327.4725274725274
1650546304828.31,115.52786788557947,1327.4725274725274
1650546304828.606,115.59604603127767,1324.5421245421244
1650546304851.1428,115.59604603127767,1322.3443223443223
1650546304852.256,115.52786788557947,1316.4835164835165
1650546304854.5498,115.59604603127767,1315.018315018315
1650546304854.706,115.59604603127767,1312.8205128205127
1650546304863.507,115.59604603127767,1312.087912087912
1650546304888.487,115.59604603127767,1311.3553113553112
1650546304889.7869,115.52786788557947,1310.6227106227104
1650546304890.058,115.52786788557947,1309.1575091575091
1650546304910.895,115.59604603127767,1309.89010989011
1650546304912.162,115.52786788557947,1310.6227106227104
1650546304913.3242,115.59604603127767,1310.6227106227104
1650546304913.5251,115.59604603127767,1310.6227106227104
1650546304938.5,115.45977011494253,1312.087912087912
1650546304939.6392,115.52786788557947,1312.087912087912
1650546304964.634,115.59604603127767,1312.8205128205127
1650546304964.8582,115.59604603127767,1312.8205128205127
1650546304965.919,115.59604603127767,1315.7509157509157
1650546304978.504,115.59604603127767,1318.6813186813185
1650546304979.507,115.59604603127767,1321.6117216117216
1650546304979.602,115.59604603127767,1323.076923076923
1650546305005.96,115.59604603127767,1319.4139194139193
1650546305009.623,115.59604603127767,1317.216117216117
1650546305033.3892,115.59604603127767,1315.7509157509157
1650546305033.6511,115.52786788557947,1314.2857142857142
1650546305034.6838,115.52786788557947,1316.4835164835165
1650546305035.91,115.59604603127767,1315.7509157509157
1650546305037.038,115.59604603127767,1315.7509157509157
1650546305037.202,115.59604603127767,1317.9487179487178
1650546305064.6738,115.52786788557947,1323.076923076923
1650546305065.875,115.59604603127767,1327.4725274725274
1650546305087.059,115.59604603127767,1336.263736263736
1650546305087.214,115.59604603127767,1350.18315018315
1650546305088.424,115.59604603127767,1367.7655677655678
1650546305089.664,115.59604603127767,1386.080586080586
1650546305103.406,115.59604603127767,1405.8608058608058
1650546305129.731,115.59604603127767,1428.5714285714284
1650546305129.9182,115.52786788557947,1454.212454212454
1650546305130.958,115.52786788557947,1477.6556776556777
1650546305152.183,115.59604603127767,1499.6336996336995
1650546305152.461,115.59604603127767,1519.4139194139193
1650546305153.535,115.52786788557947,1539.194139194139
1650546305155.914,115.59604603127767,1553.8461538461538
1650546305185.848,115.59604603127767,1565.5677655677655
1650546305186.073,115.59604603127767,1572.161172161172
1650546305187.136,115.52786788557947,1573.6263736263736
1650546305210.97,115.52786788557947,1567.032967032967
1650546305211.988,115.59604603127767,1558.974358974359
1650546305212.12,115.59604603127767,1545.7875457875457
1650546305213.516,115.52786788557947,1528.937728937729
1650546305214.634,115.52786788557947,1510.6227106227104
1650546305240.8372,115.59604603127767,1491.5750915750914
1650546305265.9111,115.59604603127767,1473.9926739926739
1650546305266.105,115.52786788557947,1456.4102564102564
1650546305267.061,115.52786788557947,1441.7582417582416
1650546305267.208,115.59604603127767,1429.3040293040292
1650546305267.242,115.66430469441984,1420.5128205128203
1650546305275.913,115.59604603127767,1416.8498168498168
1650546305277.145,115.59604603127767,1413.9194139194137
1650546305310.8,115.59604603127767,1410.2564102564102
1650546305310.988,115.59604603127767,1406.5934065934066
1650546305312.126,115.52786788557947,1403.6630036630036
1650546305325.919,115.59604603127767,1398.5347985347985
1650546305326.9639,115.52786788557947,1394.8717948717947
1650546305327.098,115.52786788557947,1391.2087912087911
1650546305328.4531,115.52786788557947,1389.7435897435896
1650546305342.126,115.52786788557947,1389.0109890109889
1650546305369.597,115.59604603127767,1390.4761904761904
1650546305370.729,115.59604603127767,1389.7435897435896
1650546305370.9158,115.59604603127767,1389.7435897435896
1650546305388.5,115.59604603127767,1389.7435897435896
1650546305389.475,115.59604603127767,1390.4761904761904
1650546305389.669,115.59604603127767,1392.6739926739926
1650546305390.845,115.52786788557947,1397.069597069597
1650546305422.093,115.59604603127767,1402.9304029304028
1650546305423.1719,115.52786788557947,1407.3260073260071
1650546305449.6118,115.66430469441984,1412.4542124542124
1650546305449.874,115.59604603127767,1415.3846153846152
1650546305450.864,115.59604603127767,1417.5824175824175
1650546305452.005,115.52786788557947,1416.8498168498168
1650546305452.157,115.59604603127767,1412.4542124542124
1650546305453.441,115.59604603127767,1406.5934065934066
1650546305478.441,115.52786788557947,1400.7326007326005
1650546305479.448,115.59604603127767,1394.139194139194
1650546305479.584,115.59604603127767,1390.4761904761904
1650546305505.866,115.59604603127767,1388.278388278388
1650546305507.043,115.52786788557947,1388.278388278388
1650546305551.975,115.59604603127767,1387.5457875457876
1650546305552.1628,115.59604603127767,1387.5457875457876
1650546305553.4128,115.52786788557947,1386.080586080586
1650546305568.395,115.52786788557947,1378.7545787545787
1650546305569.409,115.59604603127767,1368.4981684981683
1650546305569.571,115.59604603127767,1358.974358974359
1650546305570.886,115.59604603127767,1354.5787545787546
1650546305572.104,115.52786788557947,1347.985347985348
1650546305573.2441,115.52786788557947,1342.8571428571427
1650546305573.52,115.66430469441984,1338.4615384615383
1650546305582.4521,115.52786788557947,1337.7289377289376
1650546305610.858,115.59604603127767,1336.9963369963368
1650546305611.979,115.45977011494253,1334.7985347985348
1650546305629.432,115.66430469441984,1331.8681318681317
1650546305629.606,115.52786788557947,1328.937728937729
1650546305630.923,115.59604603127767,1326.007326007326
1650546305631.912,115.52786788557947,1323.076923076923
1650546305632.009,115.59604603127767,1320.14652014652
1650546305660.849,115.45977011494253,1319.4139194139193
1650546305662.03,115.59604603127767,1315.7509157509157
1650546305687.074,115.59604603127767,1313.5531135531135
1650546305687.3801,115.59604603127767,1312.087912087912
1650546305688.3618,115.52786788557947,1312.087912087912
1650546305689.942,115.59604603127767,1311.3553113553112
1650546305694.4421,115.52786788557947,1312.8205128205127
1650546305694.814,115.59604603127767,1312.8205128205127
1650546305723.458,115.52786788557947,1314.2857142857142
1650546305725.354,115.59604603127767,1315.7509157509157
1650546305745.6929,115.59604603127767,1317.9487179487178
1650546305745.841,115.66430469441984,1319.4139194139193
1650546305747.213,115.52786788557947,1321.6117216117216
1650546305748.433,115.59604603127767,1323.8095238095236
1650546305761.937,115.59604603127767,1327.4725274725274
1650546305762.095,115.59604603127767,1330.4029304029302
1650546305814.837,115.52786788557947,1333.3333333333333
1650546305815.839,115.59604603127767,1334.7985347985348
1650546305816.9119,115.59604603127767,1334.7985347985348
1650546305817.3599,115.59604603127767,1334.065934065934
1650546305818.354,115.52786788557947,1333.3333333333333
1650546305819.5,115.59604603127767,1332.6007326007325
1650546305820.581,115.59604603127767,1329.6703296703297
1650546305820.646,115.59604603127767,1326.007326007326
1650546305847.0571,115.52786788557947,1320.14652014652
1650546305848.3801,115.59604603127767,1313.5531135531135
1650546305868.205,115.52786788557947,1309.1575091575091
1650546305870.784,115.59604603127767,1305.4945054945053
1650546305871.0078,115.52786788557947,1304.7619047619046
1650546305872.0469,115.59604603127767,1303.2967032967033
1650546305902.044,115.59604603127767,1305.4945054945053
1650546305902.2551,115.52786788557947,1309.1575091575091
1650546305903.383,115.52786788557947,1312.087912087912
1650546305927.0781,115.59604603127767,1313.5531135531135
1650546305929.373,115.59604603127767,1312.087912087912
1650546305929.563,115.59604603127767,1313.5531135531135
1650546305930.731,115.52786788557947,1313.5531135531135
1650546305932.023,115.59604603127767,1315.018315018315
1650546305958.134,115.52786788557947,1317.216117216117
1650546305958.297,115.59604603127767,1317.216117216117
1650546305959.492,115.59604603127767,1318.6813186813185
1650546305985.821,115.66430469441984,1319.4139194139193
1650546305987.376,115.52786788557947,1320.14652014652
1650546305994.4128,115.66430469441984,1317.9487179487178
1650546305994.6138,115.59604603127767,1318.6813186813185
1650546305999.5051,115.52786788557947,1315.7509157509157
1650546306024.487,115.59604603127767,1315.018315018315
1650546306024.708,115.59604603127767,1314.2857142857142
1650546306025.991,115.59604603127767,1314.2857142857142
1650546306050.8389,115.52786788557947,1314.2857142857142
1650546306051.9011,115.59604603127767,1315.018315018315
1650546306052.113,115.59604603127767,1316.4835164835165
1650546306063.442,115.59604603127767,1318.6813186813185
1650546306063.6711,115.59604603127767,1320.8791208791208
1650546306095.788,115.52786788557947,1321.6117216117216
1650546306096.113,115.66430469441984,1319.4139194139193
1650546306096.998,115.59604603127767,1317.9487179487178
1650546306107.127,115.59604603127767,1315.018315018315
1650546306108.112,115.59604603127767,1312.087912087912
1650546306108.314,115.66430469441984,1309.89010989011
1650546306109.555,115.52786788557947,1311.3553113553112
1650546306123.395,115.59604603127767,1312.8205128205127
1650546306148.4858,115.59604603127767,1315.018315018315
1650546306148.8582,115.66430469441984,1317.216117216117
1650546306149.799,115.59604603127767,1318.6813186813185
1650546306173.354,115.59604603127767,1323.076923076923
1650546306174.327,115.59604603127767,1326.007326007326
1650546306175.642,115.66430469441984,1331.8681318681317
1650546306175.832,115.52786788557947,1341.3919413919414
1650546306184.5,115.59604603127767,1355.3113553113553
1650546306211.866,115.59604603127767,1372.8937728937728
1650546306212.061,115.59604603127767,1394.8717948717947
1650546306213.261,115.52786788557947,1417.5824175824175
1650546306232.001,115.59604603127767,1444.6886446886447
1650546306233.064,115.59604603127767,1469.5970695970695
1650546306233.244,115.66430469441984,1495.970695970696
1650546306234.487,115.59604603127767,1520.8791208791208
1650546306259.54,115.59604603127767,1542.1245421245421
1650546306260.518,115.59604603127767,1558.974358974359
1650546306260.615,115.66430469441984,1569.9633699633698
1650546306285.97,115.59604603127767,1577.2893772893772
1650546306287.035,115.59604603127767,1576.5567765567764
1650546306288.0708,115.59604603127767,1572.8937728937728
1650546306288.255,115.66430469441984,1563.3699633699632
1650546306302.0251,115.59604603127767,1551.6483516483515
1650546306326.953,115.59604603127767,1534.065934065934
1650546306328.004,115.52786788557947,1514.2857142857142
1650546306328.099,115.66430469441984,1491.5750915750914
1650546306356.4502,115.59604603127767,1471.062271062271
1650546306356.617,115.59604603127767,1452.014652014652
1650546306356.735,115.59604603127767,1435.164835164835
1650546306358.228,115.66430469441984,1422.7106227106226
1650546306358.351,115.59604603127767,1412.4542124542124
1650546306383.6738,115.59604603127767,1403.6630036630036
1650546306410.6318,115.59604603127767,1396.3369963369962
1650546306410.796,115.66430469441984,1390.4761904761904
1650546306411.57,115.52786788557947,1387.5457875457876
1650546306413.2332,115.59604603127767,1383.8827838827838
1650546306414.3071,115.66430469441984,1380.2197802197802
1650546306423.038,115.66430469441984,1377.2893772893772
1650546306423.188,115.59604603127767,1375.8241758241757
1650546306454.467,115.66430469441984,1375.091575091575
1650546306455.837,115.66430469441984,1376.5567765567764
1650546306456.0361,115.66430469441984,1375.8241758241757
1650546306469.4368,115.59604603127767,1375.8241758241757
1650546306470.677,115.66430469441984,1375.091575091575
1650546306477.092,115.59604603127767,1375.8241758241757
1650546306477.425,115.66430469441984,1378.021978021978
1650546306504.346,115.52786788557947,1384.6153846153845
1650546306507.899,115.66430469441984,1391.9413919413919
1650546306529.298,115.59604603127767,1398.5347985347985
1650546306529.729,115.66430469441984,1405.8608058608058
1650546306530.735,115.59604603127767,1411.7216117216117
1650546306531.867,115.66430469441984,1416.117216117216
1650546306540.595,115.66430469441984,1419.047619047619
1650546306566.774,115.66430469441984,1419.7802197802198
1650546306566.9128,115.59604603127767,1419.7802197802198
1650546306568.199,115.66430469441984,1417.5824175824175
1650546306593.0,115.66430469441984,1414.6520146520145
1650546306593.1548,115.66430469441984,1408.7912087912086
1650546306594.475,115.59604603127767,1405.128205128205
1650546306595.774,115.59604603127767,1401.4652014652013
1650546306601.81,115.66430469441984,1399.2673992673992
1650546306628.088,115.66430469441984,1395.6043956043954
1650546306628.402,115.52786788557947,1393.4065934065934
1650546306629.3691,115.66430469441984,1389.7435897435896
1650546306653.021,115.59604603127767,1383.8827838827838
1650546306653.175,115.66430469441984,1379.4871794871794
1650546306654.355,115.59604603127767,1372.8937728937728
1650546306655.589,115.66430469441984,1366.3003663003662
1650546306683.0571,115.66430469441984,1360.4395604395604
1650546306683.282,115.59604603127767,1356.7765567765566
1650546306684.371,115.59604603127767,1351.6483516483515
1650546306706.909,115.66430469441984,1344.3223443223442
1650546306708.035,115.66430469441984,1338.4615384615383
1650546306708.301,115.66430469441984,1330.4029304029302
1650546306709.439,115.59604603127767,1322.3443223443223
1650546306718.174,115.66430469441984,1313.5531135531135
1650546306749.274,115.52786788557947,1306.9597069597069
1650546306749.623,115.66430469441984,1301.098901098901
1650546306750.7551,115.59604603127767,1297.4358974358975
1650546306772.085,115.66430469441984,1296.7032967032967
1650546306772.9312,115.59604603127767,1300.3663003663003
1650546306773.0762,115.66430469441984,1305.4945054945053
1650546306774.2869,115.59604603127767,1308.4249084249084
1650546306775.564,115.66430469441984,1309.1575091575091
1650546306812.9739,115.66430469441984,1307.6923076923076
1650546306814.3462,115.66430469441984,1306.227106227106
1650546306814.6191,115.52786788557947,1305.4945054945053
1650546306824.344,115.66430469441984,1302.5641025641025
1650546306825.4348,115.59604603127767,1299.6336996336995
1650546306825.644,115.66430469441984,1299.6336996336995
1650546306834.428,115.59604603127767,1301.098901098901
1650546306843.134,115.59604603127767,1302.5641025641025
1650546306868.258,115.66430469441984,1303.2967032967033
1650546306868.4758,115.66430469441984,1307.6923076923076
1650546306869.2651,115.66430469441984,1312.087912087912
1650546306890.6938,115.66430469441984,1319.4139194139193
1650546306892.138,115.73264401772525,1324.5421245421244
1650546306892.342,115.73264401772525,1326.7399267399267
1650546306893.189,115.59604603127767,1327.4725274725274
1650546306919.4219,115.66430469441984,1323.8095238095236
1650546306920.451,115.66430469441984,1320.8791208791208
1650546306946.755,115.66430469441984,1318.6813186813185
1650546306947.0369,115.59604603127767,1318.6813186813185
1650546306948.065,115.66430469441984,1315.7509157509157
1650546306955.647,115.66430469441984,1313.5531135531135
1650546306956.9458,115.66430469441984,1310.6227106227104
1650546306958.081,115.59604603127767,1309.1575091575091
1650546307004.261,115.66430469441984,1307.6923076923076
1650546307005.38,115.59604603127767,1305.4945054945053
1650546307006.703,115.66430469441984,1303.2967032967033
1650546307006.846,115.66430469441984,1304.0293040293038
1650546307007.991,115.66430469441984,1304.7619047619046
1650546307009.106,115.66430469441984,1304.0293040293038
1650546307009.4868,115.73264401772525,1304.7619047619046
1650546307018.105,115.59604603127767,1305.4945054945053
1650546307053.051,115.66430469441984,1305.4945054945053
1650546307067.885,115.66430469441984,1306.227106227106
1650546307069.177,115.73264401772525,1308.4249084249084
1650546307069.481,115.66430469441984,1311.3553113553112
1650546307070.4949,115.66430469441984,1312.087912087912
1650546307071.708,115.66430469441984,1311.3553113553112
1650546307072.9429,115.66430469441984,1309.1575091575091
1650546307081.823,115.59604603127767,1308.4249084249084
1650546307133.157,115.73264401772525,1309.1575091575091
1650546307134.0671,115.66430469441984,1311.3553113553112
1650546307134.187,115.73264401772525,1310.6227106227104
1650546307135.561,115.66430469441984,1311.3553113553112
1650546307136.731,115.66430469441984,1309.89010989011
1650546307137.844,115.66430469441984,1306.9597069597069
1650546307138.041,115.73264401772525,1306.227106227106
1650546307144.289,115.66430469441984,1309.89010989011
1650546307174.225,115.66430469441984,1315.018315018315
1650546307175.266,115.66430469441984,1320.8791208791208
1650546307186.906,115.73264401772525,1325.2747252747251
1650546307187.125,115.59604603127767,1327.4725274725274
1650546307187.977,115.66430469441984,1328.2051282051282
1650546307195.428,115.66430469441984,1327.4725274725274
1650546307197.968,115.66430469441984,1326.7399267399267
1650546307222.905,115.66430469441984,1327.4725274725274
1650546307224.257,115.73264401772525,1324.5421245421244
1650546307249.124,115.73264401772525,1323.076923076923
1650546307250.49,115.66430469441984,1322.3443223443223
1650546307250.671,115.66430469441984,1323.8095238095236
1650546307254.4849,115.66430469441984,1325.2747252747251
1650546307262.812,115.66430469441984,1327.4725274725274
1650546307262.9531,115.66430469441984,1330.4029304029302
1650546307289.195,115.66430469441984,1336.9963369963368
1650546307290.406,115.66430469441984,1347.985347985348
1650546307309.208,115.73264401772525,1362.6373626373625
1650546307310.29,115.73264401772525,1380.2197802197802
1650546307310.435,115.66430469441984,1403.6630036630036
1650546307311.6382,115.73264401772525,1426.3736263736262
1650546307320.359,115.66430469441984,1450.5494505494505
1650546307320.544,115.66430469441984,1476.1904761904761
1650546307345.464,115.66430469441984,1498.9010989010987
1650546307346.653,115.73264401772525,1519.4139194139193
1650546307370.374,115.66430469441984,1535.5311355311355
1650546307371.642,115.73264401772525,1547.985347985348
1650546307371.811,115.59604603127767,1557.5091575091574
1650546307372.897,115.73264401772525,1558.974358974359
1650546307397.765,115.66430469441984,1557.5091575091574
1650546307397.9038,115.66430469441984,1551.6483516483515
1650546307399.104,115.66430469441984,1542.1245421245421
1650546307427.9648,115.73264401772525,1530.4029304029302
1650546307428.963,115.66430469441984,1512.8205128205127
1650546307429.073,115.73264401772525,1491.5750915750914
1650546307430.4011,115.59604603127767,1470.3296703296703
1650546307439.199,115.73264401772525,1449.084249084249
1650546307441.672,115.59604603127767,1430.03663003663
1650546307441.989,115.73264401772525,1412.4542124542124
1650546307466.627,115.66430469441984,1399.2673992673992
1650546307468.565,115.73264401772525,1389.7435897435896
1650546307491.479,115.66430469441984,1382.4175824175823
1650546307491.602,115.73264401772525,1375.8241758241757
1650546307492.796,115.66430469441984,1372.8937728937728
1650546307502.196,115.59604603127767,1369.9633699633698
1650546307526.576,115.66430469441984,1367.032967032967
1650546307526.824,115.66430469441984,1362.6373626373625
1650546307527.874,115.66430469441984,1358.2417582417581
1650546307550.608,115.59604603127767,1353.8461538461538
1650546307551.5088,115.66430469441984,1351.6483516483515
1650546307551.707,115.66430469441984,1353.113553113553
1650546307552.8582,115.66430469441984,1354.5787545787546
1650546307559.19,115.73264401772525,1361.1721611721612
1650546307586.603,115.59604603127767,1368.4981684981683
1650546307586.8499,115.66430469441984,1375.8241758241757
1650546307587.817,115.66430469441984,1381.6849816849815
1650546307610.417,115.66430469441984,1386.8131868131868
1650546307611.48,115.73264401772525,1391.9413919413919
1650546307611.649,115.66430469441984,1396.3369963369962
1650546307612.832,115.59604603127767,1402.197802197802
1650546307621.654,115.73264401772525,1405.8608058608058
1650546307655.261,115.66430469441984,1405.8608058608058
1650546307655.3928,115.66430469441984,1406.5934065934066
1650546307656.605,115.66430469441984,1405.8608058608058
1650546307671.735,115.73264401772525,1402.197802197802
1650546307676.065,115.73264401772525,1399.2673992673992
1650546307676.193,115.73264401772525,1396.3369963369962
1650546307676.2322,115.66430469441984,1394.139194139194
1650546307684.214,115.73264401772525,1389.0109890109889
1650546307710.256,115.73264401772525,1383.8827838827838
1650546307710.4722,115.66430469441984,1378.021978021978
1650546307711.58,115.66430469441984,1372.8937728937728
1650546307731.577,115.73264401772525,1367.7655677655678
1650546307732.702,115.73264401772525,1365.5677655677655
1650546307732.894,115.73264401772525,1362.6373626373625
1650546307736.624,115.66430469441984,1361.904761904762
1650546307762.933,115.73264401772525,1358.2417582417581
