Timestamp,GSR,PPG
1650462703814.548,262.55023923445,0.0
1650462703814.85,262.55023923445,0.0
1650462703815.764,262.55023923445,0.0
1650462703830.573,262.55023923445,0.0
1650462703830.7668,262.55023923445,0.0
1650462703831.912,262.55023923445,0.0
1650462703859.375,262.55023923445,0.0
1650462703860.522,262.55023923445,0.0
1650462703884.1938,307.7415553809898,0.0
1650462703884.385,307.7415553809898,0.0
1650462703885.522,307.7415553809898,0.0
1650462703886.631,307.7415553809898,0.0
1650462703895.435,307.7415553809898,0.0
1650462703895.591,307.7415553809898,0.0
1650462703901.897,307.7415553809898,0.0
1650462703926.819,307.7415553809898,0.0
1650462703941.655,307.7415553809898,0.0
1650462703941.822,307.7415553809898,0.0
1650462703942.996,307.7415553809898,0.0
1650462703944.289,307.91788856304987,0.0
1650462703958.021,308.0568720379147,0.0
1650462703958.212,307.91788856304987,0.0
1650462703995.6018,308.0568720379147,0.0
1650462703996.737,308.19598103409345,0.0
1650462704004.3572,308.0568720379147,0.0
1650462704004.573,308.0568720379147,0.0
1650462704005.574,308.0568720379147,0.0
1650462704014.302,308.19598103409345,0.0
1650462704014.6128,308.19598103409345,0.0
1650462704043.049,308.0568720379147,0.0
1650462704044.2869,308.19598103409345,0.0
1650462704044.425,308.19598103409345,0.0
1650462704064.269,308.19598103409345,0.0
1650462704064.481,308.0568720379147,0.0
1650462704065.6062,308.19598103409345,0.0
1650462704066.714,308.19598103409345,0.0
1650462704080.448,308.47457627118644,0.0
1650462704080.631,308.19598103409345,0.0
1650462704108.299,308.3352157217077,0.0
1650462704109.3992,308.3352157217077,0.0
1650462704124.207,308.47457627118644,0.0
1650462704124.4048,308.19598103409345,0.0
1650462704125.559,308.0568720379147,0.0
1650462704134.168,308.3352157217077,0.0
1650462704142.93,308.19598103409345,0.0
1650462704143.0881,308.0568720379147,0.0
1650462704178.0542,308.3352157217077,0.0
1650462704179.1338,308.3352157217077,0.0
1650462704180.451,308.47457627118644,0.0
1650462704180.661,308.19598103409345,0.0
1650462704181.7778,308.3352157217077,0.0
1650462704195.571,308.0568720379147,0.0
1650462704220.533,308.3352157217077,0.0
1650462704220.864,308.3352157217077,0.0
1650462704221.958,308.3352157217077,0.0
1650462704241.684,308.3352157217077,0.0
1650462704242.906,308.47457627118644,0.0
1650462704243.0588,308.3352157217077,0.0
1650462704244.277,308.3352157217077,0.0
1650462704258.1401,308.3352157217077,0.0
1650462704294.1948,308.3352157217077,0.0
1650462704294.3572,308.19598103409345,0.0
1650462704295.5352,308.47457627118644,0.0
1650462704305.6172,308.47457627118644,0.0
1650462704306.798,308.47457627118644,0.0
1650462704306.986,308.19598103409345,0.0
1650462704308.0981,308.3352157217077,0.0
1650462704321.819,308.3352157217077,0.0
1650462704346.714,308.3352157217077,0.0
1650462704347.011,308.19598103409345,0.0
1650462704348.084,308.3352157217077,0.0
1650462704365.668,308.3352157217077,0.0
1650462704368.016,308.3352157217077,0.0
1650462704368.2,308.19598103409345,0.0
1650462704369.375,308.3352157217077,0.0
1650462704383.061,308.19598103409345,0.0
1650462704415.462,308.3352157217077,0.0
1650462704415.7778,308.19598103409345,0.0
1650462704416.91,308.3352157217077,0.0
1650462704421.69,308.3352157217077,0.0
1650462704422.923,308.3352157217077,0.0
1650462704423.0771,308.0568720379147,0.0
1650462704436.7722,308.3352157217077,0.0
1650462704463.46,308.3352157217077,0.0
1650462704463.8381,308.19598103409345,0.0
1650462704464.109,308.0568720379147,0.0
1650462704484.324,308.0568720379147,0.0
1650462704485.402,308.19598103409345,0.0
1650462704486.657,308.0568720379147,0.0
1650462704486.821,308.19598103409345,0.0
1650462704500.675,308.19598103409345,0.0
1650462704536.701,308.0568720379147,0.0
1650462704538.085,308.3352157217077,0.0
1650462704538.2668,308.0568720379147,0.0
1650462704543.029,308.0568720379147,0.0
1650462704544.1748,308.0568720379147,0.0
1650462704552.966,308.0568720379147,0.0
1650462704553.114,307.91788856304987,0.0
1650462704558.234,308.0568720379147,0.0
1650462704593.0632,307.77903043968433,0.0
1650462704594.1921,308.0568720379147,0.0
1650462704594.33,307.91788856304987,0.0
1650462704601.8938,307.91788856304987,0.0
1650462704602.994,307.91788856304987,0.0
1650462704611.889,307.91788856304987,0.0
1650462704612.059,307.6402974983097,0.0
1650462704636.803,307.77903043968433,0.0
1650462704637.937,307.77903043968433,0.0
1650462704666.3389,308.0568720379147,0.0
1650462704666.572,307.77903043968433,0.0
1650462704666.755,307.77903043968433,0.0
1650462704671.707,307.77903043968433,0.0
1650462704672.951,307.77903043968433,0.0
1650462704673.135,307.6402974983097,0.0
1650462704698.066,307.6402974983097,0.0
1650462704699.167,307.6402974983097,0.0
1650462704723.155,307.77903043968433,0.0
1650462704723.311,307.5016895697229,0.0
1650462704724.325,307.5016895697229,0.0
1650462704725.402,307.5016895697229,0.0
1650462704757.945,307.6402974983097,0.0
1650462704758.1301,307.2248480756246,0.0
1650462704759.2969,307.3632064850259,0.0
1650462704784.348,307.3632064850259,0.0
1650462704784.608,307.2248480756246,0.0
1650462704784.668,307.2248480756246,0.0
1650462704785.603,307.0866141732283,0.0
1650462704789.1829,307.2248480756246,0.0
1650462704807.6921,307.3632064850259,0.0
1650462704807.826,307.0866141732283,0.0
1650462704839.525,307.2248480756246,0.0
1650462704840.642,306.94850460984935,0.0
1650462704840.9531,307.2248480756246,0.0
1650462704844.322,307.0866141732283,0.0
1650462704845.567,306.94850460984935,0.0
1650462704850.3972,306.81051921780175,0.0
1650462704875.479,306.94850460984935,0.0
1650462704875.764,306.6726578297012,0.0
1650462704876.96,306.81051921780175,0.0
1650462704901.9922,306.81051921780175,0.0
1650462704902.962,306.81051921780175,0.0
1650462704903.162,306.6726578297012,0.0
1650462704908.0168,306.6726578297012,0.0
1650462704909.112,306.6726578297012,0.0
1650462704942.912,306.6726578297012,0.0
1650462704943.016,306.53492027846397,0.0
1650462704944.292,306.53492027846397,0.0
1650462704965.6428,306.53492027846397,0.0
1650462704966.757,306.3973063973064,0.0
1650462704966.958,306.3973063973064,0.0
1650462704968.087,306.3973063973064,0.0
1650462704996.707,306.3973063973064,0.0
1650462704996.876,306.2598160197442,0.0
1650462704998.043,306.12244897959187,0.0
1650462705023.169,306.2598160197442,0.0
1650462705024.4292,306.12244897959187,0.0
1650462705024.752,306.12244897959187,0.0
1650462705025.8638,305.98520511096166,0.0
1650462705051.808,305.98520511096166,0.0
1650462705052.9038,306.12244897959187,0.0
1650462705079.281,306.12244897959187,0.0
1650462705080.052,305.98520511096166,0.0
1650462705080.8179,305.98520511096166,0.0
1650462705087.956,305.8480842482635,0.0
1650462705088.157,306.12244897959187,0.0
1650462705089.242,305.8480842482635,0.0
1650462705090.5361,305.98520511096166,0.0
1650462705116.841,305.98520511096166,0.0
1650462705117.059,305.8480842482635,0.0
1650462705118.0488,305.7110862262038,0.0
1650462705144.3,305.8480842482635,0.0
1650462705145.3992,305.7110862262038,0.0
1650462705149.2551,305.8480842482635,0.0
1650462705149.366,305.5742108797851,0.0
1650462705150.513,305.7110862262038,0.0
1650462705177.907,305.7110862262038,0.0
1650462705179.242,305.5742108797851,0.0
1650462705179.2869,305.5742108797851,0.7326007326007326
1650462705205.6748,305.5742108797851,0.0
1650462705206.643,305.30082755535676,0.0
1650462705207.898,305.5742108797851,0.0
1650462705208.085,305.30082755535676,0.0
1650462705216.788,305.43745804430523,0.0
1650462705241.7842,305.30082755535676,0.0
1650462705242.094,305.30082755535676,0.0
1650462705243.021,305.1643192488263,0.0
1650462705266.9128,305.30082755535676,0.0
1650462705268.0308,305.30082755535676,0.0
1650462705268.165,305.30082755535676,0.0
1650462705269.3281,305.02793296089385,0.0
1650462705280.607,305.30082755535676,0.0
1650462705307.937,305.1643192488263,0.0
1650462705309.1519,305.1643192488263,0.0
1650462705309.284,304.8916685280322,0.0
1650462705321.815,305.02793296089385,0.0
1650462705322.9922,305.02793296089385,0.0
1650462705331.862,304.8916685280322,0.0
1650462705332.119,304.8916685280322,0.0
1650462705340.731,304.8916685280322,0.0
1650462705369.451,304.8916685280322,0.0
1650462705369.7542,304.8916685280322,0.0
1650462705370.655,304.75552578700604,0.0
1650462705384.519,304.8916685280322,0.0
1650462705385.5332,304.75552578700604,0.0
1650462705394.492,304.75552578700604,0.0
1650462705394.833,304.75552578700604,0.0
1650462705403.1821,304.75552578700604,0.0
1650462705434.416,304.75552578700604,0.0
1650462705445.442,304.75552578700604,0.0
1650462705445.631,304.48360472897616,0.0
1650462705446.76,304.6195045748717,0.0
1650462705448.0022,304.6195045748717,0.0
1650462705461.724,304.6195045748717,0.0
1650462705461.921,304.6195045748717,0.0
1650462705463.064,304.6195045748717,0.0
1650462705498.44,304.6195045748717,0.0
1650462705500.659,304.6195045748717,0.0
1650462705500.924,304.34782608695656,0.0
1650462705502.0398,304.6195045748717,0.0
1650462705510.836,304.48360472897616,0.0
1650462705515.51,304.2121684867395,0.0
1650462705515.894,304.34782608695656,0.0
1650462705545.923,304.48360472897616,0.0
1650462705546.938,304.48360472897616,0.0
1650462705565.813,304.48360472897616,0.0
1650462705566.025,304.2121684867395,0.0
1650462705566.993,304.34782608695656,0.0
1650462705568.28,304.34782608695656,0.0
1650462705583.136,304.48360472897616,0.0
1650462705583.3281,304.07663176654046,0.0
1650462705619.663,304.34782608695656,0.0
1650462705620.655,304.48360472897616,0.0
1650462705624.419,304.48360472897616,0.0
1650462705624.616,304.2121684867395,0.0
1650462705625.814,304.2121684867395,0.0
1650462705632.038,304.34782608695656,0.0
1650462705669.6938,304.2121684867395,0.0
1650462705669.896,304.07663176654046,0.0
1650462705670.7449,304.34782608695656,0.0
1650462705688.109,304.2121684867395,0.0
1650462705689.3662,304.34782608695656,0.0
1650462705689.5872,304.2121684867395,0.0
1650462705690.6582,304.07663176654046,0.0
1650462705691.9502,304.2121684867395,0.0
1650462705721.7651,304.2121684867395,0.0
1650462705721.8982,303.94121576486305,0.0
1650462705722.996,304.07663176654046,0.0
1650462705745.8,304.07663176654046,0.0
1650462705748.026,304.2121684867395,0.0
1650462705748.2842,303.94121576486305,0.0
1650462705754.591,304.07663176654046,0.0
1650462705780.7478,304.07663176654046,0.0
1650462705781.88,304.07663176654046,0.0
1650462705782.1838,304.07663176654046,0.0
1650462705802.0598,304.07663176654046,0.0
1650462705803.001,304.2121684867395,0.0
1650462705804.3662,304.2121684867395,0.0
1650462705804.5708,303.94121576486305,0.0
1650462705809.5952,304.07663176654046,0.0
1650462705823.034,303.94121576486305,0.0
1650462705823.232,304.07663176654046,0.0
1650462705858.209,304.07663176654046,0.0
1650462705859.376,303.94121576486305,0.0
1650462705867.1401,304.07663176654046,0.0
1650462705868.0872,304.2121684867395,0.0
1650462705868.321,303.94121576486305,0.0
1650462705869.3591,303.94121576486305,0.0
1650462705900.798,304.07663176654046,0.0
1650462705901.9092,304.07663176654046,0.0
1650462705902.131,303.94121576486305,0.0
1650462705921.832,303.94121576486305,0.0
1650462705923.016,304.07663176654046,0.0
1650462705925.4229,304.07663176654046,0.0
1650462705925.569,303.94121576486305,0.0
1650462705934.36,304.07663176654046,0.0
1650462705961.761,304.07663176654046,0.0
1650462705961.879,303.94121576486305,0.0
1650462705963.0972,304.07663176654046,0.0
1650462705984.415,303.94121576486305,0.0
1650462705986.718,304.07663176654046,0.0
1650462705987.989,304.07663176654046,0.0
1650462705988.1401,303.94121576486305,0.0
1650462705997.0068,304.07663176654046,0.0
1650462706033.643,303.94121576486305,0.0
1650462706033.908,304.2121684867395,0.0
1650462706034.465,303.94121576486305,0.0
1650462706046.957,303.94121576486305,0.0
1650462706047.2878,304.07663176654046,0.0
1650462706055.9102,304.07663176654046,0.0
1650462706056.1719,304.07663176654046,0.0
1650462706062.023,304.07663176654046,0.0
1650462706086.8052,304.07663176654046,0.0
1650462706087.931,304.2121684867395,0.0
1650462706088.048,303.94121576486305,0.0
1650462706100.795,304.07663176654046,0.0
1650462706101.8838,304.07663176654046,0.0
1650462706111.8591,304.07663176654046,0.0
1650462706112.0269,303.94121576486305,0.0
1650462706138.7751,304.2121684867395,0.0
1650462706139.297,304.2121684867395,0.0
1650462706139.503,304.34782608695656,0.0
1650462706167.1729,303.94121576486305,0.0
1650462706168.408,304.07663176654046,0.0
1650462706172.1,304.2121684867395,0.0
1650462706172.992,304.34782608695656,0.0
1650462706173.199,304.07663176654046,0.0
1650462706200.9202,304.07663176654046,0.0
1650462706201.994,304.34782608695656,0.0
1650462706224.585,304.34782608695656,0.0
1650462706224.8062,304.2121684867395,0.0
1650462706225.775,304.34782608695656,0.0
1650462706226.857,304.34782608695656,0.0
1650462706242.042,304.34782608695656,0.0
1650462706242.238,304.2121684867395,0.0
1650462706243.0388,304.48360472897616,0.0
1650462706269.5762,304.48360472897616,0.0
1650462706269.814,304.48360472897616,0.0
1650462706270.763,304.34782608695656,0.0
1650462706284.762,304.48360472897616,0.0
1650462706285.6409,304.48360472897616,0.0
1650462706299.5469,304.48360472897616,0.0
1650462706299.793,304.34782608695656,0.0
1650462706324.769,304.48360472897616,0.0
1650462706325.651,304.6195045748717,0.0
1650462706325.8481,304.75552578700604,0.0
1650462706346.046,304.48360472897616,0.0
1650462706347.024,304.48360472897616,0.7326007326007326
1650462706348.1802,304.6195045748717,0.0
1650462706362.229,304.75552578700604,0.0
1650462706362.4749,304.48360472897616,0.0
1650462706392.175,304.6195045748717,0.0
1650462706393.179,304.6195045748717,0.0
1650462706393.377,304.75552578700604,0.0
1650462706401.091,304.6195045748717,0.0
1650462706409.634,304.6195045748717,0.0
1650462706415.8389,304.75552578700604,0.0
1650462706445.7458,304.8916685280322,0.0
1650462706445.951,304.6195045748717,0.0
1650462706447.05,304.8916685280322,0.0
1650462706464.674,304.8916685280322,0.0
1650462706465.618,304.8916685280322,0.0
1650462706465.8862,304.75552578700604,0.0
1650462706466.944,304.75552578700604,0.0
1650462706478.383,305.02793296089385,0.0
1650462706478.6301,304.75552578700604,0.0
1650462706518.507,304.8916685280322,0.0
1650462706519.393,305.1643192488263,0.0
1650462706520.545,305.02793296089385,0.0
1650462706520.736,305.1643192488263,0.0
1650462706521.956,304.8916685280322,0.0
1650462706530.721,305.02793296089385,0.0
1650462706539.519,304.8916685280322,0.0
1650462706572.019,305.1643192488263,7.326007326007326
1650462706572.31,305.02793296089385,126.007326007326
1650462706573.333,305.02793296089385,288.64468864468864
1650462706584.6318,305.1643192488263,467.3992673992674
1650462706584.9521,305.30082755535676,642.4908424908424
1650462706585.7961,305.02793296089385,807.3260073260072
1650462706594.696,305.02793296089385,956.7765567765567
1650462706599.61,305.02793296089385,1083.5164835164835
1650462706625.79,305.1643192488263,1189.0109890109889
1650462706626.001,305.1643192488263,1273.9926739926739
1650462706626.999,305.1643192488263,1339.194139194139
1650462706646.913,305.30082755535676,1388.278388278388
1650462706648.098,305.30082755535676,1422.7106227106226
1650462706648.293,305.1643192488263,1443.956043956044
1650462706649.384,305.30082755535676,1454.9450549450548
1650462706675.931,305.1643192488263,1457.142857142857
1650462706676.907,305.43745804430523,1449.8168498168498
1650462706677.103,305.30082755535676,1438.8278388278388
1650462706703.462,305.43745804430523,1421.9780219780218
1650462706704.583,305.43745804430523,1401.4652014652013
1650462706708.103,305.5742108797851,1379.4871794871794
1650462706708.303,305.43745804430523,1356.7765567765566
1650462706714.4119,305.43745804430523,1333.3333333333333
1650462706739.605,305.5742108797851,1312.087912087912
1650462706740.696,305.5742108797851,1293.7728937728937
1650462706740.898,305.5742108797851,1276.1904761904761
1650462706764.81,305.5742108797851,1262.2710622710622
1650462706765.7148,305.5742108797851,1251.2820512820513
1650462706766.856,305.7110862262038,1239.5604395604396
1650462706767.049,305.5742108797851,1230.03663003663
1650462706780.746,305.7110862262038,1221.9780219780218
1650462706807.2031,305.8480842482635,1216.8498168498168
1650462706823.2231,305.8480842482635,1216.117216117216
1650462706823.4192,305.7110862262038,1218.3150183150183
1650462706824.445,305.8480842482635,1220.5128205128203
1650462706825.789,305.98520511096166,1224.1758241758241
1650462706831.938,305.8480842482635,1228.5714285714284
1650462706832.201,305.8480842482635,1234.4322344322343
1650462706840.851,305.98520511096166,1239.5604395604396
1650462706870.865,305.98520511096166,1246.8864468864467
1650462706871.1208,306.12244897959187,1252.7472527472526
1650462706872.059,305.8480842482635,1258.6080586080586
1650462706888.3381,305.98520511096166,1258.6080586080586
1650462706889.3909,305.98520511096166,1258.6080586080586
1650462706889.657,306.12244897959187,1258.6080586080586
1650462706896.262,306.12244897959187,1260.07326007326
1650462706933.469,306.12244897959187,1261.5384615384614
1650462706934.409,306.2598160197442,1262.2710622710622
1650462706942.1,306.3973063973064,1263.003663003663
1650462706942.363,306.12244897959187,1266.6666666666665
1650462706943.0571,306.2598160197442,1268.8644688644688
1650462706944.2698,306.2598160197442,1268.131868131868
1650462706958.314,306.2598160197442,1268.131868131868
1650462706958.553,306.2598160197442,1269.5970695970695
1650462706988.507,306.2598160197442,1269.5970695970695
1650462706989.65,306.3973063973064,1270.3296703296703
1650462707003.031,306.53492027846397,1268.131868131868
1650462707003.226,306.2598160197442,1268.131868131868
1650462707004.462,306.3973063973064,1267.3992673992673
1650462707005.665,306.3973063973064,1268.8644688644688
1650462707019.55,306.53492027846397,1269.5970695970695
1650462707019.82,306.3973063973064,1269.5970695970695
1650462707047.0322,306.53492027846397,1268.8644688644688
1650462707048.28,306.81051921780175,1265.9340659340658
1650462707069.5022,306.6726578297012,1264.4688644688645
1650462707069.692,306.6726578297012,1265.2014652014652
1650462707070.704,306.6726578297012,1265.2014652014652
1650462707071.959,306.81051921780175,1263.7362637362637
1650462707105.9429,306.81051921780175,1264.4688644688645
1650462707106.211,306.6726578297012,1265.2014652014652
1650462707106.8599,306.81051921780175,1264.4688644688645
1650462707123.491,306.81051921780175,1265.2014652014652
1650462707125.438,306.94850460984935,1265.2014652014652
1650462707125.629,306.81051921780175,1265.2014652014652
1650462707126.758,306.94850460984935,1263.7362637362637
1650462707133.5781,306.94850460984935,1262.2710622710622
1650462707163.128,306.6726578297012,1263.003663003663
1650462707163.413,306.81051921780175,1263.7362637362637
1650462707183.396,307.0866141732283,1266.6666666666665
1650462707184.511,307.0866141732283,1272.5274725274724
1650462707186.8801,307.0866141732283,1283.5164835164835
1650462707187.0771,306.94850460984935,1301.098901098901
1650462707188.209,306.94850460984935,1327.4725274725274
1650462707202.017,307.0866141732283,1361.1721611721612
1650462707202.2122,306.94850460984935,1400.7326007326005
1650462707233.236,307.0866141732283,1441.7582417582416
1650462707234.562,307.2248480756246,1484.2490842490843
1650462707241.995,307.2248480756246,1523.0769230769229
1650462707243.052,307.2248480756246,1558.974358974359
1650462707243.242,307.0866141732283,1591.2087912087911
1650462707244.486,307.2248480756246,1611.7216117216117
1650462707258.452,307.2248480756246,1624.1758241758241
1650462707285.865,307.3632064850259,1624.1758241758241
1650462707286.114,307.2248480756246,1617.5824175824175
1650462707286.987,307.3632064850259,1602.197802197802
1650462707303.3782,307.3632064850259,1578.7545787545787
1650462707304.384,307.5016895697229,1550.9157509157508
1650462707304.678,307.3632064850259,1519.4139194139193
1650462707309.716,307.3632064850259,1484.9816849816848
1650462707323.2988,307.3632064850259,1454.212454212454
1650462707323.544,307.5016895697229,1423.4432234432234
1650462707359.749,307.3632064850259,1396.3369963369962
1650462707360.854,307.5016895697229,1370.6959706959706
1650462707361.834,307.5016895697229,1349.4505494505493
1650462707363.04,307.77903043968433,1331.8681318681317
1650462707363.2358,307.5016895697229,1317.9487179487178
1650462707378.419,307.6402974983097,1306.9597069597069
1650462707379.251,307.5016895697229,1300.3663003663003
1650462707405.7441,307.6402974983097,1294.5054945054944
1650462707405.979,307.6402974983097,1291.5750915750914
1650462707406.969,307.6402974983097,1288.6446886446886
1650462707412.091,307.77903043968433,1287.9120879120878
1650462707429.371,307.77903043968433,1287.9120879120878
1650462707429.656,307.77903043968433,1289.3772893772893
1650462707430.76,307.77903043968433,1292.3076923076922
1650462707456.298,307.91788856304987,1298.9010989010987
1650462707456.847,307.91788856304987,1309.89010989011
1650462707457.0679,307.77903043968433,1323.8095238095236
1650462707482.282,307.91788856304987,1336.263736263736
1650462707483.184,308.0568720379147,1350.18315018315
1650462707489.345,308.0568720379147,1363.3699633699632
1650462707489.634,307.77903043968433,1375.091575091575
1650462707498.378,307.91788856304987,1383.8827838827838
1650462707523.388,307.91788856304987,1391.2087912087911
1650462707524.383,307.91788856304987,1398.5347985347985
1650462707524.586,307.91788856304987,1403.6630036630036
1650462707547.027,308.0568720379147,1406.5934065934066
1650462707548.2532,308.19598103409345,1408.058608058608
1650462707550.59,308.0568720379147,1405.8608058608058
1650462707550.782,308.0568720379147,1401.4652014652013
1650462707559.747,308.0568720379147,1394.139194139194
1650462707585.8618,308.19598103409345,1384.6153846153845
1650462707586.112,308.3352157217077,1373.6263736263736
1650462707586.9019,308.19598103409345,1363.3699633699632
1650462707606.059,308.19598103409345,1352.3809523809523
1650462707606.8489,308.3352157217077,1340.6593406593406
1650462707607.0708,308.3352157217077,1328.2051282051282
1650462707621.006,308.3352157217077,1317.216117216117
1650462707647.1392,308.3352157217077,1307.6923076923076
1650462707648.257,308.47457627118644,1300.3663003663003
1650462707662.0022,308.47457627118644,1295.2380952380952
1650462707662.194,308.3352157217077,1293.040293040293
1650462707663.19,308.47457627118644,1290.8424908424909
1650462707664.423,308.3352157217077,1290.8424908424909
1650462707692.1548,308.47457627118644,1289.3772893772893
1650462707692.404,308.3352157217077,1286.4468864468863
1650462707693.3,308.614062853267,1282.051282051282
1650462707720.9539,308.47457627118644,1278.3882783882782
1650462707721.155,308.7536756389957,1274.7252747252746
1650462707722.02,308.3352157217077,1273.260073260073
1650462707725.9531,308.614062853267,1272.5274725274724
1650462707726.818,308.614062853267,1272.5274725274724
1650462707727.02,308.7536756389957,1272.5274725274724
1650462707740.96,308.614062853267,1272.5274725274724
1650462707766.0479,308.7536756389957,1271.7948717948716
1650462707766.8608,308.614062853267,1271.062271062271
1650462707767.052,308.8934147997284,1270.3296703296703
1650462707780.8298,308.614062853267,1270.3296703296703
1650462707782.0388,308.614062853267,1271.062271062271
1650462707790.965,308.7536756389957,1270.3296703296703
1650462707799.49,308.8934147997284,1272.5274725274724
1650462707799.898,308.614062853267,1275.4578754578754
1650462707826.039,308.8934147997284,1276.923076923077
1650462707826.8772,308.8934147997284,1279.8534798534797
1650462707827.075,309.0332805071315,1281.3186813186812
1650462707846.978,308.8934147997284,1282.7838827838827
1650462707848.238,308.8934147997284,1283.5164835164835
1650462707849.3591,308.8934147997284,1284.9816849816848
1650462707863.28,309.1732729331823,1285.7142857142856
1650462707863.5261,308.8934147997284,1287.9120879120878
1650462707889.604,309.0332805071315,1286.4468864468863
1650462707891.175,309.0332805071315,1282.7838827838827
1650462707903.2642,309.0332805071315,1280.5860805860805
1650462707903.508,308.7536756389957,1281.3186813186812
1650462707904.439,309.0332805071315,1282.051282051282
1650462707918.323,309.0332805071315,1282.7838827838827
1650462707918.678,308.8934147997284,1284.2490842490843
1650462707948.3398,308.8934147997284,1283.5164835164835
1650462707949.48,309.1732729331823,1282.051282051282
1650462707968.174,309.0332805071315,1279.120879120879
1650462707968.525,309.1732729331823,1275.4578754578754
1650462707969.5388,309.0332805071315,1273.260073260073
1650462707970.8372,309.0332805071315,1268.8644688644688
1650462707980.631,309.1732729331823,1268.131868131868
1650462708012.335,309.31339225016995,1265.2014652014652
1650462708012.736,309.0332805071315,1263.003663003663
1650462708013.428,309.1732729331823,1260.8058608058607
1650462708023.3691,309.1732729331823,1260.8058608058607
1650462708024.374,309.1732729331823,1261.5384615384614
1650462708024.5781,309.1732729331823,1260.8058608058607
1650462708025.784,309.1732729331823,1258.6080586080586
1650462708039.627,309.1732729331823,1259.3406593406592
1650462708064.537,309.1732729331823,1265.2014652014652
1650462708064.733,309.0332805071315,1273.9926739926739
1650462708065.785,309.0332805071315,1284.9816849816848
1650462708085.854,309.0332805071315,1301.8315018315018
1650462708086.115,309.31339225016995,1324.5421245421244
1650462708087.008,308.8934147997284,1356.7765567765566
1650462708088.289,309.0332805071315,1393.4065934065934
1650462708101.988,309.0332805071315,1436.6300366300366
1650462708102.182,309.0332805071315,1484.2490842490843
1650462708130.678,308.8934147997284,1530.4029304029302
1650462708131.9858,308.8934147997284,1570.6959706959706
1650462708145.739,309.0332805071315,1606.5934065934066
1650462708145.936,309.0332805071315,1632.2344322344322
1650462708146.9678,308.7536756389957,1648.3516483516482
1650462708155.9949,308.7536756389957,1653.4798534798533
1650462708188.205,308.614062853267,1648.3516483516482
1650462708189.342,308.8934147997284,1632.9670329670328
1650462708189.603,308.614062853267,1610.2564102564102
1650462708203.011,308.614062853267,1581.6849816849815
1650462708204.256,308.614062853267,1550.18315018315
1650462708205.38,308.614062853267,1517.216117216117
1650462708205.492,308.19598103409345,1484.2490842490843
1650462708219.348,308.47457627118644,1449.8168498168498
1650462708253.267,308.3352157217077,1419.7802197802198
1650462708254.428,308.47457627118644,1392.6739926739926
1650462708254.6511,308.0568720379147,1372.161172161172
1650462708262.104,308.0568720379147,1353.113553113553
1650462708263.113,308.0568720379147,1340.6593406593406
1650462708264.3682,307.91788856304987,1331.135531135531
1650462708264.576,307.77903043968433,1324.5421245421244
1650462708279.416,307.77903043968433,1320.14652014652
1650462708315.988,307.6402974983097,1316.4835164835165
1650462708317.063,307.3632064850259,1315.018315018315
1650462708323.438,307.3632064850259,1312.8205128205127
1650462708324.4578,307.2248480756246,1313.5531135531135
1650462708325.587,307.3632064850259,1316.4835164835165
1650462708325.877,307.0866141732283,1320.8791208791208
1650462708334.6519,306.81051921780175,1327.4725274725274
1650462708340.75,306.81051921780175,1333.3333333333333
1650462708367.117,306.3973063973064,1340.6593406593406
1650462708367.362,306.6726578297012,1350.9157509157508
1650462708368.388,306.12244897959187,1364.8351648351647
1650462708382.159,306.12244897959187,1375.8241758241757
1650462708388.1719,305.98520511096166,1386.080586080586
1650462708388.427,305.8480842482635,1393.4065934065934
1650462708394.715,305.5742108797851,1400.7326007326005
1650462708403.407,305.5742108797851,1406.5934065934066
1650462708428.201,305.43745804430523,1410.2564102564102
1650462708428.455,305.1643192488263,1413.1868131868132
1650462708429.451,304.75552578700604,1413.9194139194137
1650462708442.199,304.75552578700604,1412.4542124542124
1650462708443.0898,304.48360472897616,1410.989010989011
1650462708443.296,304.6195045748717,1407.3260073260071
1650462708457.179,304.07663176654046,1402.9304029304028
1650462708482.003,303.94121576486305,1394.8717948717947
1650462708483.0862,303.80592032049856,1386.080586080586
1650462708505.78,303.67074527252504,1376.5567765567764
1650462708506.0352,303.13124583610926,1367.7655677655678
1650462708507.049,302.9966703662597,1358.2417582417581
1650462708508.2358,302.8622143332594,1348.7179487179487
1650462708522.308,302.727877578177,1339.194139194139
1650462708522.6482,302.3255813953489,1331.8681318681317
1650462708523.009,302.1917201682533,1323.8095238095236
1650462708554.6091,301.7908467831086,1315.7509157509157
1650462708563.108,301.65745856353595,1307.6923076923076
1650462708563.305,301.39103554868626,1301.8315018315018
1650462708564.493,301.1250827266711,1298.168498168498
1650462708579.549,300.9922822491731,1295.2380952380952
1650462708580.632,300.59458269103726,1294.5054945054944
1650462708580.947,300.197932702881,1293.7728937728937
1650462708609.761,300.0659485601231,1293.040293040293
1650462708610.625,299.9340804218853,1293.040293040293
1650462708620.831,299.67069154774975,1293.040293040293
1650462708621.0662,299.27647445735585,1296.7032967032967
1650462708621.9539,298.8832931902781,1300.3663003663003
1650462708635.886,298.752462245568,1301.098901098901
1650462708636.135,298.4911436693637,1301.8315018315018
1650462708642.111,297.969875573019,1301.8315018315018
1650462708669.803,297.83984289766533,1300.3663003663003
1650462708670.5999,297.58011772400266,1301.098901098901
1650462708688.108,297.3208451317796,1301.098901098901
1650462708688.287,296.80365296803654,1303.2967032967033
1650462708689.512,296.5457310449707,1303.2967032967033
1650462708690.679,296.2882570002171,1303.2967032967033
1650462708719.353,296.1596875678021,1303.2967032967033
1650462708719.492,295.6465237166991,1304.0293040293038
1650462708720.772,295.3906080934862,1304.7619047619046
1650462708746.978,295.2628163530175,1305.4945054945053
1650462708749.323,294.7527531850572,1306.9597069597069
1650462708749.516,294.4983818770226,1305.4945054945053
1650462708750.73,294.1176470588235,1302.5641025641025
1650462708759.819,293.99095412448844,1297.4358974358975
1650462708798.338,293.48527198451944,1293.040293040293
1650462708798.562,293.2330827067669,1289.3772893772893
1650462708799.337,292.9813264649066,1287.9120879120878
1650462708800.57,292.604501607717,1287.179487179487
1650462708801.805,292.3538230884557,1284.9816849816848
1650462708802.0078,291.9786096256684,1284.9816849816848
1650462708810.988,291.6043580431531,1286.4468864468863
1650462708840.006,291.47982062780267,1289.3772893772893
1650462708840.6628,290.98273289277336,1290.8424908424909
1650462708840.905,290.73482428115017,1290.8424908424909
1650462708862.225,290.4873377314322,1288.6446886446886
1650462708863.051,290.2402721667021,1286.4468864468863
1650462708864.28,289.8704608197069,1282.7838827838827
1650462708864.501,289.50159066808055,1280.5860805860805
1650462708879.55,289.13365812327896,1278.3882783882782
1650462708919.7231,289.0112216811349,1275.4578754578754
1650462708919.989,288.76665961497775,1271.062271062271
1650462708920.397,288.27877507919743,1267.3992673992673
1650462708920.916,288.0354505169867,1265.9340659340658
1650462708921.904,287.7925363693865,1268.131868131868
1650462708923.0398,287.5500315989046,1270.3296703296703
1650462708923.2349,287.06624605678235,1273.9926739926739
1650462708937.14,286.8249632275688,1274.7252747252746
1650462708943.2322,286.7044738500315,1277.6556776556777
1650462708968.3818,286.3436123348018,1281.3186813186812
1650462708968.635,285.9836580766813,1290.10989010989
1650462708969.616,285.7441909148001,1304.0293040293038
1650462708982.138,285.62460765850597,1327.4725274725274
1650462708989.4841,285.26645768025077,1358.2417582417581
1650462708989.674,284.909204758923,1397.069597069597
1650462708998.157,284.5528455284553,1439.5604395604394
1650462709023.4321,284.3157675484274,1485.7142857142856
1650462709024.513,284.0790842872008,1531.8681318681317
1650462709024.7668,283.8427947598253,1571.4285714285713
1650462709043.366,283.4890965732087,1605.8608058608058
1650462709044.439,283.37139298318453,1630.03663003663
1650462709046.781,283.13627878033606,1643.956043956044
1650462709046.983,282.7843380981976,1646.8864468864467
1650462709060.905,282.550196646657,1639.5604395604394
1650462709087.2258,282.43327126008694,1624.1758241758241
1650462709088.1619,282.0830750154991,1604.3956043956043
1650462709088.369,281.85009291761304,1580.2197802197802
1650462709103.431,281.6174953579534,1552.3809523809523
1650462709104.374,281.50134048257377,1522.3443223443223
1650462709113.208,281.26931794766125,1491.5750915750914
1650462709113.4429,280.8064184324213,1462.2710622710622
1650462709122.299,280.8064184324213,1433.6996336996335
1650462709148.186,280.57553956834533,1408.058608058608
1650462709148.416,280.34504004929147,1385.3479853479853
1650462709149.473,280.0,1367.032967032967
1650462709166.001,279.7704447632712,1353.113553113553
1650462709166.962,279.6558082360172,1340.6593406593406
1650462709177.114,279.5412656154004,1331.135531135531
1650462709177.3591,279.1982000409082,1328.2051282051282
1650462709205.76,279.08403189531793,1324.5421245421244
1650462709207.023,278.742086992036,1320.14652014652
1650462709224.672,278.62829148805884,1315.7509157509157
1650462709224.8772,278.28746177370033,1314.2857142857142
1650462709225.832,278.17403708987166,1315.018315018315
1650462709226.791,278.0607048278672,1318.6813186813185
1650462709240.895,277.94746487477096,1324.5421245421244
1650462709241.149,277.4954258995731,1333.3333333333333
1650462709271.057,277.4954258995731,1341.3919413919414
1650462709271.9778,277.1573604060914,1350.18315018315
1650462709272.1929,277.1573604060914,1359.7069597069597
1650462709283.4648,276.93244065733415,1371.4285714285713
1650462709284.573,276.70788566795056,1385.3479853479853
1650462709293.258,276.3717351690626,1397.069597069597
1650462709293.453,276.483694551347,1405.8608058608058
1650462709302.133,276.2598664238009,1413.1868131868132
1650462709328.288,276.1480882055432,1415.3846153846152
1650462709329.387,276.03640040444895,1416.117216117216
1650462709329.693,275.9248029108551,1416.117216117216
1650462709348.449,275.7018784084023,1413.1868131868132
1650462709349.489,275.47931382441976,1406.5934065934066
1650462709350.506,275.47931382441976,1401.4652014652013
1650462709375.9119,275.3681662295743,1394.139194139194
1650462709376.162,275.03526093088857,1387.5457875457876
1650462709377.1118,275.03526093088857,1380.2197802197802
1650462709406.097,274.9244712990936,1372.8937728937728
1650462709406.9368,274.81377088785985,1365.5677655677655
1650462709407.1838,274.5926372963186,1357.5091575091574
1650462709408.259,274.4822039010657,1347.985347985348
1650462709417.042,274.4822039010657,1339.9267399267399
1650462709442.174,274.3718592964824,1332.6007326007325
1650462709442.427,274.15143603133157,1327.4725274725274
1650462709443.27,274.15143603133157,1322.3443223443223
1650462709464.674,274.0413571571973,1316.4835164835165
1650462709465.6328,273.8214643931795,1310.6227106227104
1650462709465.862,273.7116502907559,1306.9597069597069
1650462709466.979,273.60192423331324,1304.0293040293038
1650462709483.267,273.60192423331324,1301.098901098901
1650462709483.46,273.3827358301622,1300.3663003663003
1650462709508.3872,273.2732732732733,1299.6336996336995
1650462709509.499,273.3827358301622,1298.168498168498
1650462709527.164,273.16389833900337,1298.9010989010987
1650462709527.405,273.2732732732733,1298.9010989010987
1650462709528.2659,272.9454109178164,1298.9010989010987
1650462709529.405,272.9454109178164,1298.9010989010987
1650462709543.315,272.9454109178164,1298.168498168498
1650462709543.557,272.7272727272727,1297.4358974358975
1650462709568.606,272.7272727272727,1295.970695970696
1650462709569.54,272.7272727272727,1296.7032967032967
1650462709588.24,272.6183343319353,1301.098901098901
1650462709588.495,272.6183343319353,1306.9597069597069
1650462709589.47,272.40071841947713,1312.087912087912
1650462709595.8208,272.5094829307247,1314.2857142857142
1650462709625.762,272.5094829307247,1316.4835164835165
1650462709626.924,272.5094829307247,1317.9487179487178
1650462709627.1511,272.29204069419507,1319.4139194139193
1650462709642.124,272.29204069419507,1319.4139194139193
1650462709642.408,272.40071841947713,1320.14652014652
1650462709642.961,272.29204069419507,1320.14652014652
1650462709643.124,272.1834496510468,1320.8791208791208
1650462709652.032,272.1834496510468,1318.6813186813185
1650462709680.8,272.07494518636634,1315.7509157509157
1650462709681.896,272.07494518636634,1312.087912087912
1650462709682.091,271.9665271966527,1309.89010989011
1650462709708.355,271.9665271966527,1306.227106227106
1650462709709.6099,271.9665271966527,1302.5641025641025
1650462709710.639,271.9665271966527,1298.9010989010987
1650462709710.875,271.74995022894683,1293.7728937728937
1650462709711.937,271.85819557856996,1289.3772893772893
1650462709738.122,271.6417910447761,1288.6446886446886
1650462709739.292,271.74995022894683,1285.7142857142856
1650462709739.433,271.6417910447761,1285.7142857142856
1650462709764.678,271.6417910447761,1284.2490842490843
1650462709765.794,271.74995022894683,1284.9816849816848
1650462709769.362,271.6417910447761,1287.9120879120878
1650462709769.5562,271.5337179232146,1294.5054945054944
1650462709778.33,271.5337179232146,1303.2967032967033
1650462709809.622,271.5337179232146,1317.9487179487178
1650462709809.818,271.6417910447761,1339.9267399267399
1650462709810.7559,271.4257307615828,1367.7655677655678
1650462709825.9211,271.4257307615828,1400.0
1650462709826.735,271.4257307615828,1437.3626373626373
1650462709826.8809,271.21001390820584,1477.6556776556777
1650462709831.971,271.3178294573643,1520.14652014652
1650462709860.934,271.3178294573643,1562.6373626373625
1650462709861.809,271.3178294573643,1601.4652014652013
1650462709887.0461,271.3178294573643,1634.4322344322343
1650462709887.294,271.21001390820584,1660.07326007326
1650462709888.21,271.1022840119166,1673.9926739926739
1650462709889.3079,271.21001390820584,1677.6556776556774
1650462709889.5881,271.21001390820584,1671.7948717948716
1650462709898.3071,271.1022840119166,1658.6080586080584
1650462709903.301,270.9946396664681,1635.8974358974358
1650462709913.106,271.1022840119166,1605.128205128205
1650462709944.649,271.1022840119166,1571.4285714285713
1650462709944.9001,270.9946396664681,1535.5311355311355
1650462709945.837,270.9946396664681,1498.168498168498
1650462709946.851,270.9946396664681,1463.003663003663
1650462709955.548,270.9946396664681,1432.2344322344322
1650462709955.796,270.88708076999404,1406.5934065934066
1650462709980.8909,270.88708076999404,1386.8131868131868
1650462709981.884,270.9946396664681,1369.9633699633698
1650462710003.361,271.1022840119166,1355.3113553113553
1650462710003.628,270.88708076999404,1347.2527472527472
1650462710004.581,270.9946396664681,1339.9267399267399
1650462710005.813,270.9946396664681,1333.3333333333333
1650462710019.263,271.1022840119166,1326.7399267399267
1650462710019.485,270.9946396664681,1321.6117216117216
1650462710050.7769,271.1022840119166,1321.6117216117216
1650462710051.9358,271.21001390820584,1328.937728937729
1650462710052.0798,271.21001390820584,1338.4615384615383
1650462710064.553,271.1022840119166,1351.6483516483515
1650462710064.7622,271.1022840119166,1367.032967032967
1650462710073.2761,271.21001390820584,1383.150183150183
1650462710073.477,271.3178294573643,1400.7326007326005
1650462710079.52,271.1022840119166,1419.047619047619
1650462710105.9849,271.3178294573643,1433.6996336996335
1650462710106.965,271.3178294573643,1446.153846153846
1650462710123.39,271.4257307615828,1457.142857142857
1650462710123.6802,271.3178294573643,1465.9340659340658
1650462710124.506,271.4257307615828,1471.062271062271
1650462710139.827,271.4257307615828,1476.1904761904761
1650462710140.644,271.5337179232146,1479.8534798534797
1650462710140.877,271.4257307615828,1476.923076923077
1650462710178.508,271.5337179232146,1470.3296703296703
1650462710179.293,271.74995022894683,1460.07326007326
1650462710180.7449,271.74995022894683,1449.8168498168498
1650462710180.99,271.74995022894683,1438.8278388278388
1650462710181.956,271.85819557856996,1427.8388278388277
1650462710195.884,271.85819557856996,1416.8498168498168
1650462710229.342,272.07494518636634,1405.8608058608058
1650462710229.553,271.85819557856996,1397.069597069597
1650462710230.686,272.07494518636634,1385.3479853479853
1650462710242.157,272.1834496510468,1371.4285714285713
1650462710244.342,272.1834496510468,1358.974358974359
1650462710244.56,272.1834496510468,1347.985347985348
1650462710245.709,272.40071841947713,1339.9267399267399
1650462710259.785,272.5094829307247,1334.065934065934
1650462710293.4011,272.5094829307247,1328.2051282051282
1650462710293.662,272.5094829307247,1323.8095238095236
1650462710294.583,272.6183343319353,1320.14652014652
1650462710302.1519,272.7272727272727,1317.216117216117
1650462710304.312,272.83629822106735,1317.216117216117
1650462710304.524,272.7272727272727,1318.6813186813185
1650462710309.647,272.83629822106735,1322.3443223443223
1650462710323.39,272.9454109178164,1323.8095238095236
1650462710323.698,273.0546109221844,1326.007326007326
1650462710351.107,273.0546109221844,1329.6703296703297
1650462710352.01,273.2732732732733,1331.135531135531
1650462710362.073,273.2732732732733,1332.6007326007325
1650462710363.106,273.492286115007,1334.7985347985348
1650462710363.291,273.2732732732733,1336.263736263736
1650462710377.1921,273.492286115007,1334.065934065934
1650462710382.06,273.7116502907559,1334.065934065934
1650462710382.256,273.8214643931795,1334.7985347985348
1650462710413.326,273.7116502907559,1339.9267399267399
1650462710427.257,273.9313666465984,1342.8571428571427
1650462710428.1099,273.9313666465984,1344.3223443223442
1650462710429.375,274.15143603133157,1345.054945054945
1650462710429.5708,274.0413571571973,1345.7875457875457
1650462710468.251,274.15143603133157,1345.054945054945
1650462710469.41,274.2616033755274,1346.5201465201465
1650462710469.6382,274.4822039010657,1346.5201465201465
1650462710484.7432,274.4822039010657,1347.985347985348
1650462710485.827,274.4822039010657,1348.7179487179487
1650462710486.79,274.81377088785985,1347.2527472527472
1650462710488.067,274.9244712990936,1346.5201465201465
1650462710488.27,274.81377088785985,1345.054945054945
1650462710497.001,275.03526093088857,1341.3919413919414
1650462710523.417,275.14613989115094,1338.4615384615383
1650462710523.751,275.2571082879613,1335.5311355311355
1650462710524.5571,275.2571082879613,1334.065934065934
1650462710544.7732,275.3681662295743,1330.4029304029302
1650462710545.702,275.47931382441976,1326.007326007326
1650462710546.763,275.7018784084023,1321.6117216117216
1650462710546.9539,275.47931382441976,1318.6813186813185
1650462710561.206,275.7018784084023,1318.6813186813185
1650462710598.205,275.8132956152758,1319.4139194139193
1650462710599.3608,275.7018784084023,1323.8095238095236
1650462710599.5369,275.9248029108551,1330.4029304029302
1650462710600.7659,276.1480882055432,1345.054945054945
1650462710601.957,276.2598664238009,1366.3003663003662
1650462710636.6938,276.3717351690626,1397.8021978021977
1650462710636.883,276.3717351690626,1437.3626373626373
1650462710638.009,276.483694551347,1484.9816849816848
1650462710639.148,276.483694551347,1536.9963369963368
1650462710639.2778,276.8201176232002,1591.2087912087911
1650462710665.821,276.70788566795056,1645.4212454212452
1650462710666.898,276.93244065733415,1695.2380952380952
1650462710668.0042,277.04485488126653,1737.7289377289376
1650462710674.436,277.2699573430835,1768.4981684981683
1650462710674.578,277.2699573430835,1788.278388278388
1650462710702.142,277.2699573430835,1794.8717948717947
1650462710703.095,277.4954258995731,1790.4761904761904
1650462710703.292,277.60829774252596,1774.3589743589741
1650462710724.907,277.4954258995731,1748.7179487179485
1650462710725.843,277.7212614445575,1715.018315018315
1650462710726.926,277.8343171178506,1676.1904761904761
1650462710753.608,278.0607048278672,1633.6996336996335
1650462710753.857,278.0607048278672,1593.4065934065934
1650462710754.527,278.17403708987166,1553.8461538461538
1650462710780.915,278.40097899245364,1518.6813186813185
1650462710781.162,278.62829148805884,1488.6446886446886
1650462710782.146,278.40097899245364,1464.4688644688645
1650462710785.846,278.742086992036,1443.956043956044
1650462710786.886,278.742086992036,1427.8388278388277
1650462710801.011,279.08403189531793,1413.1868131868132
1650462710801.2732,278.855975485189,1404.3956043956043
1650462710827.186,279.08403189531793,1397.8021978021977
1650462710828.382,279.31246163290365,1394.8717948717947
1650462710846.868,279.31246163290365,1393.4065934065934
1650462710847.071,279.4268167860799,1394.8717948717947
1650462710848.259,279.4268167860799,1399.2673992673992
1650462710849.3992,279.6558082360172,1404.3956043956043
1650462710863.098,279.7704447632712,1412.4542124542124
1650462710863.2979,279.88517531269224,1423.4432234432234
1650462710888.4011,279.88517531269224,1435.8974358974358
1650462710889.568,280.22993225210433,1449.8168498168498
1650462710905.834,280.22993225210433,1462.2710622710622
1650462710906.036,280.34504004929147,1475.4578754578754
1650462710907.007,280.46024244914736,1487.9120879120878
1650462710916.126,280.57553956834533,1498.168498168498
1650462710954.4648,280.6909315237508,1506.9597069597069
1650462710954.683,280.6909315237508,1512.8205128205127
1650462710955.811,280.92200041160737,1514.2857142857142
1650462710964.665,281.0376775787523,1513.5531135531135
1650462710965.648,281.15345005149334,1511.3553113553112
1650462710965.884,281.0376775787523,1509.1575091575091
1650462710966.9558,281.26931794766125,1501.098901098901
1650462710980.682,281.3852813852814,1490.10989010989
1650462710980.969,281.3852813852814,1481.3186813186812
1650462711009.687,281.50134048257377,1471.062271062271
1650462711011.224,281.73374613003097,1463.003663003663
1650462711024.502,281.85009291761304,1452.014652014652
1650462711024.8389,282.0830750154991,1441.0256410256409
1650462711025.845,281.96653583970254,1430.03663003663
1650462711026.875,282.0830750154991,1416.8498168498168
1650462711042.326,282.31644260599796,1404.3956043956043
1650462711068.302,282.43327126008694,1391.2087912087911
1650462711068.64,282.31644260599796,1380.952380952381
1650462711083.4602,282.66721888589774,1369.9633699633698
1650462711084.438,282.66721888589774,1364.102564102564
1650462711094.543,282.66721888589774,1360.4395604395604
1650462711094.647,282.7843380981976,1357.5091575091574
1650462711094.743,282.9015544041451,1352.3809523809523
1650462711100.6401,282.9015544041451,1350.18315018315
1650462711127.319,283.0188679245283,1348.7179487179487
1650462711127.5662,283.13627878033606,1349.4505494505493
1650462711144.767,283.13627878033606,1350.9157509157508
1650462711145.945,283.37139298318453,1351.6483516483515
1650462711146.823,283.4890965732087,1353.8461538461538
1650462711147.0188,283.37139298318453,1353.8461538461538
1650462711156.037,283.7247973394305,1353.113553113553
1650462711183.532,283.606897984625,1353.8461538461538
1650462711184.4202,283.7247973394305,1353.113553113553
1650462711184.617,283.8427947598253,1353.113553113553
1650462711202.575,283.96089036821303,1354.5787545787546
1650462711203.151,284.0790842872008,1358.2417582417581
1650462711203.351,284.19737663960024,1361.904761904762
1650462711204.479,284.19737663960024,1365.5677655677655
1650462711218.442,284.3157675484274,1367.032967032967
1650462711248.142,284.3157675484274,1367.032967032967
1650462711249.377,284.5528455284553,1365.5677655677655
1650462711249.582,284.5528455284553,1365.5677655677655
1650462711261.789,284.6715328467153,1363.3699633699632
1650462711263.0159,284.79031921552263,1363.3699633699632
1650462711267.924,284.79031921552263,1362.6373626373625
1650462711268.1091,284.79031921552263,1361.904761904762
1650462711281.761,285.02818960116934,1361.1721611721612
1650462711308.032,285.1472738667224,1360.4395604395604
1650462711321.732,285.26645768025077,1357.5091575091574
1650462711321.969,285.26645768025077,1356.0439560439559
1650462711323.019,285.3857411666318,1356.7765567765566
1650462711324.115,285.5051244509517,1357.5091575091574
1650462711324.2122,285.62460765850597,1359.7069597069597
1650462711334.26,285.5051244509517,1359.7069597069597
1650462711343.046,285.7441909148001,1358.2417582417581
1650462711374.1409,285.62460765850597,1352.3809523809523
1650462711375.366,285.86387434554973,1345.7875457875457
1650462711375.47,285.86387434554973,1339.9267399267399
1650462711381.744,285.9836580766813,1336.9963369963368
1650462711382.977,285.9836580766813,1334.7985347985348
1650462711396.667,286.10354223433245,1331.135531135531
1650462711396.772,286.10354223433245,1330.4029304029302
1650462711403.056,286.3436123348018,1328.2051282051282
1650462711428.0542,286.3436123348018,1328.937728937729
1650462711428.225,286.3436123348018,1327.4725274725274
1650462711442.129,286.4637985309549,1324.5421245421244
1650462711443.138,286.5840856602981,1326.007326007326
1650462711444.309,286.5840856602981,1333.3333333333333
1650462711444.457,286.7044738500315,1348.7179487179487
1650462711458.3372,286.8249632275688,1371.4285714285713
1650462711502.1948,286.94555392053815,1404.3956043956043
1650462711502.981,287.06624605678235,1448.3516483516482
1650462711504.293,287.1870397643593,1504.0293040293038
1650462711504.461,286.94555392053815,1569.230769230769
1650462711505.7112,287.30793517154285,1638.095238095238
1650462711506.796,287.30793517154285,1708.4249084249084
1650462711506.9338,287.30793517154285,1774.3589743589741
1650462711520.7678,287.30793517154285,1830.7692307692307
1650462711550.92,287.5500315989046,1875.4578754578754
1650462711551.824,287.67123287671234,1909.1575091575091
1650462711568.243,287.67123287671234,1926.7399267399267
1650462711568.4421,287.67123287671234,1927.4725274725274
1650462711569.512,287.9139422062856,1912.087912087912
1650462711570.5881,288.0354505169867,1884.249084249084
1650462711601.886,288.1570614312856,1845.4212454212452
1650462711602.063,288.0354505169867,1799.2673992673992
1650462711603.112,288.1570614312856,1747.2527472527472
1650462711623.049,288.4005915909571,1692.3076923076922
1650462711625.416,288.1570614312856,1638.8278388278386
1650462711625.585,288.27877507919743,1589.0109890109889
1650462711626.78,288.5225110970197,1541.3919413919414
1650462711641.7388,288.6445337280609,1501.098901098901
1650462711641.95,288.5225110970197,1468.131868131868
1650462711645.821,288.6445337280609,1441.7582417582416
1650462711675.601,288.88888888888886,1421.9780219780218
1650462711676.871,288.88888888888886,1410.2564102564102
1650462711677.0251,289.0112216811349,1400.7326007326005
1650462711685.7031,289.0112216811349,1394.8717948717947
1650462711686.986,289.0112216811349,1394.8717948717947
1650462711701.0242,289.25619834710744,1397.8021978021977
1650462711701.869,289.13365812327896,1405.8608058608058
1650462711702.074,289.25619834710744,1416.8498168498168
1650462711727.4521,289.37884248463007,1427.8388278388277
1650462711728.1301,289.62444302991724,1439.5604395604394
1650462711744.667,289.50159066808055,1454.212454212454
1650462711744.913,289.62444302991724,1469.5970695970695
1650462711745.837,289.62444302991724,1487.9120879120878
1650462711759.531,289.74739970282315,1506.9597069597069
1650462711759.913,289.8704608197069,1526.007326007326
1650462711785.9321,289.74739970282315,1543.5897435897434
1650462711787.121,290.11689691817213,1555.311355311355
1650462711804.6528,289.99362651370296,1562.6373626373625
1650462711805.6309,290.2402721667021,1566.3003663003662
1650462711805.844,290.11689691817213,1568.4981684981683
1650462711806.9028,290.2402721667021,1564.102564102564
1650462711820.94,290.36375239310786,1558.2417582417581
1650462711848.302,290.4873377314322,1550.18315018315
1650462711848.501,290.4873377314322,1539.9267399267399
1650462711849.4949,290.6110283159463,1526.7399267399267
1650462711863.294,290.73482428115017,1511.3553113553112
1650462711864.399,290.73482428115017,1495.2380952380952
1650462711864.765,290.73482428115017,1479.120879120879
1650462711873.54,290.85872576177286,1459.3406593406592
1650462711882.197,290.98273289277336,1440.2930402930401
1650462711908.288,290.85872576177286,1424.1758241758241
1650462711908.531,290.98273289277336,1409.5238095238094
1650462711909.635,291.2310646468957,1396.3369963369962
1650462711925.8252,291.2310646468957,1386.8131868131868
1650462711926.887,291.47982062780267,1377.2893772893772
1650462711927.127,291.2310646468957,1370.6959706959706
1650462711933.45,291.47982062780267,1365.5677655677655
1650462711958.466,291.47982062780267,1360.4395604395604
1650462711985.889,291.47982062780267,1355.3113553113553
1650462711986.0798,291.6043580431531,1350.9157509157508
1650462711987.039,291.6043580431531,1347.2527472527472
1650462711988.178,291.85375240538804,1344.3223443223442
1650462711988.372,291.85375240538804,1340.6593406593406
1650462711989.54,291.7290019234879,1339.194139194139
1650462711998.401,291.9786096256684,1339.194139194139
1650462712027.119,291.9786096256684,1339.194139194139
1650462712028.155,291.9786096256684,1342.8571428571427
1650462712028.348,291.9786096256684,1343.5897435897434
1650462712048.436,292.1035737213781,1345.7875457875457
1650462712049.374,292.3538230884557,1345.7875457875457
1650462712050.618,292.3538230884557,1345.054945054945
1650462712050.813,292.2286448298009,1344.3223443223442
1650462712088.6172,292.4791086350975,1344.3223443223442
1650462712089.581,292.3538230884557,1345.054945054945
1650462712089.8289,292.4791086350975,1345.054945054945
1650462712102.193,292.4791086350975,1346.5201465201465
1650462712103.177,292.604501607717,1347.985347985348
1650462712104.337,292.73000214454214,1350.18315018315
1650462712130.823,292.73000214454214,1352.3809523809523
1650462712131.0288,292.73000214454214,1353.8461538461538
1650462712132.102,292.73000214454214,1354.5787545787546
1650462712164.4312,292.85561038403773,1356.0439560439559
1650462712164.622,293.10715052608975,1357.5091575091574
1650462712165.77,292.73000214454214,1358.2417582417581
1650462712167.0261,292.9813264649066,1356.7765567765566
1650462712168.184,293.10715052608975,1354.5787545787546
1650462712177.367,293.2330827067669,1350.9157509157508
1650462712177.562,293.10715052608975,1347.985347985348
1650462712213.305,293.2330827067669,1345.7875457875457
1650462712214.4822,293.2330827067669,1345.7875457875457
1650462712214.8262,293.48527198451944,1344.3223443223442
1650462712222.289,293.2330827067669,1342.1245421245421
1650462712223.1218,293.35912314635715,1336.263736263736
1650462712224.332,293.48527198451944,1329.6703296703297
1650462712238.491,293.6115293611529,1326.007326007326
1650462712238.666,293.35912314635715,1323.8095238095236
1650462712268.251,293.48527198451944,1320.14652014652
1650462712269.523,293.6115293611529,1317.216117216117
1650462712293.563,293.6115293611529,1312.8205128205127
1650462712293.8171,293.6115293611529,1309.89010989011
1650462712294.481,293.73789541639763,1308.4249084249084
1650462712295.5488,293.73789541639763,1306.9597069597069
1650462712298.12,293.73789541639763,1306.9597069597069
1650462712298.355,293.73789541639763,1308.4249084249084
1650462712324.889,293.73789541639763,1308.4249084249084
1650462712325.929,293.86437029063507,1309.89010989011
1650462712350.882,293.99095412448844,1308.4249084249084
1650462712351.1208,293.86437029063507,1306.9597069597069
1650462712355.87,293.99095412448844,1306.227106227106
1650462712356.905,293.99095412448844,1308.4249084249084
1650462712363.144,294.1176470588235,1312.8205128205127
1650462712363.3872,293.99095412448844,1323.076923076923
1650462712388.612,294.1176470588235,1339.194139194139
1650462712410.9312,294.24444923474886,1366.3003663003662
1650462712411.174,294.24444923474886,1402.9304029304028
1650462712411.239,294.24444923474886,1452.7472527472526
1650462712411.9648,294.24444923474886,1513.5531135531135
1650462712413.069,294.37136079361653,1582.4175824175823
1650462712440.839,294.4983818770226,1657.142857142857
1650462712441.08,294.24444923474886,1731.8681318681317
1650462712442.053,294.37136079361653,1802.197802197802
1650462712467.214,294.4983818770226,1860.8058608058607
1650462712468.204,294.37136079361653,1906.227106227106
1650462712468.448,294.37136079361653,1934.065934065934
1650462712472.1191,294.4983818770226,1945.7875457875457
1650462712477.155,294.4983818770226,1940.6593406593406
1650462712513.186,294.37136079361653,1920.8791208791208
1650462712513.415,294.4983818770226,1887.9120879120878
1650462712523.425,294.4983818770226,1841.7582417582416
1650462712524.425,294.6255126268077,1788.278388278388
1650462712524.665,294.7527531850572,1728.2051282051282
1650462712525.709,294.37136079361653,1668.8644688644688
1650462712526.9548,294.7527531850572,1609.5238095238094
1650462712543.374,294.7527531850572,1553.113553113553
1650462712568.236,294.8801036941024,1501.8315018315018
1650462712568.4768,294.7527531850572,1457.8754578754579
1650462712591.089,294.8801036941024,1421.245421245421
1650462712592.0352,294.8801036941024,1391.2087912087911
1650462712593.084,294.8801036941024,1368.4981684981683
1650462712593.2788,294.7527531850572,1354.5787545787546
1650462712594.4978,294.8801036941024,1345.054945054945
1650462712603.273,295.0075642965204,1338.4615384615383
1650462712634.663,294.7527531850572,1336.9963369963368
1650462712634.898,294.8801036941024,1339.9267399267399
1650462712635.814,295.0075642965204,1345.7875457875457
1650462712652.137,295.1351351351351,1356.0439560439559
1650462712652.3298,295.2628163530175,1369.230769230769
1650462712653.196,295.0075642965204,1386.8131868131868
1650462712654.428,295.1351351351351,1404.3956043956043
1650462712690.9001,295.1351351351351,1425.6410256410256
1650462712691.9602,295.0075642965204,1448.3516483516482
1650462712692.153,295.1351351351351,1467.3992673992673
1650462712713.277,295.0075642965204,1488.6446886446886
1650462712714.36,295.2628163530175,1505.4945054945053
1650462712714.554,295.2628163530175,1520.14652014652
1650462712715.7332,295.2628163530175,1533.3333333333333
1650462712717.01,295.2628163530175,1543.5897435897434
1650462712743.255,295.3906080934862,1549.4505494505493
1650462712744.346,295.1351351351351,1552.3809523809523
1650462712744.545,295.2628163530175,1548.7179487179485
1650462712767.066,295.3906080934862,1541.3919413919414
1650462712768.085,295.3906080934862,1530.4029304029302
1650462712768.2878,295.5185105001082,1517.216117216117
1650462712769.4211,295.2628163530175,1502.5641025641025
1650462712783.6968,295.5185105001082,1487.179487179487
1650462712813.268,295.3906080934862,1471.7948717948716
1650462712814.385,295.6465237166991,1453.4798534798533
1650462712814.731,295.5185105001082,1433.6996336996335
1650462712826.9329,295.5185105001082,1413.9194139194137
1650462712828.126,295.5185105001082,1397.069597069597
1650462712829.371,295.5185105001082,1381.6849816849815
1650462712829.561,295.5185105001082,1368.4981684981683
1650462712843.7542,295.5185105001082,1356.0439560439559
1650462712876.942,295.5185105001082,1341.3919413919414
1650462712889.582,295.6465237166991,1330.4029304029302
1650462712889.7751,295.5185105001082,1320.8791208791208
1650462712890.729,295.6465237166991,1314.2857142857142
1650462712891.987,295.7746478873239,1312.8205128205127
1650462712893.121,295.7746478873239,1312.8205128205127
1650462712893.3599,295.6465237166991,1315.7509157509157
1650462712922.149,295.7746478873239,1319.4139194139193
1650462712923.097,295.7746478873239,1323.076923076923
1650462712948.098,295.9028831562974,1325.2747252747251
1650462712948.272,295.6465237166991,1328.2051282051282
1650462712949.4578,295.9028831562974,1328.937728937729
1650462712953.275,295.7746478873239,1331.135531135531
1650462712954.273,295.9028831562974,1331.135531135531
1650462712954.4229,295.9028831562974,1331.8681318681317
1650462712980.761,295.9028831562974,1331.8681318681317
1650462712981.7532,295.9028831562974,1329.6703296703297
1650462713008.149,295.9028831562974,1328.2051282051282
1650462713008.348,295.9028831562974,1326.7399267399267
1650462713015.7312,296.0312296681847,1326.007326007326
1650462713016.9749,296.0312296681847,1325.2747252747251
1650462713018.035,296.0312296681847,1327.4725274725274
1650462713018.1821,296.0312296681847,1328.937728937729
1650462713043.2761,296.0312296681847,1331.135531135531
1650462713044.436,296.0312296681847,1333.3333333333333
1650462713071.939,296.1596875678021,1334.065934065934
1650462713072.1372,296.0312296681847,1334.065934065934
1650462713073.18,296.1596875678021,1334.065934065934
1650462713074.388,296.1596875678021,1336.263736263736
1650462713083.383,296.1596875678021,1339.194139194139
1650462713083.611,296.1596875678021,1342.1245421245421
1650462713113.2778,296.1596875678021,1344.3223443223442
1650462713114.433,296.2882570002171,1346.5201465201465
1650462713128.377,296.2882570002171,1348.7179487179487
1650462713128.639,296.1596875678021,1349.4505494505493
1650462713129.53,296.2882570002171,1346.5201465201465
1650462713130.666,296.2882570002171,1338.4615384615383
1650462713161.877,296.41693811074924,1331.8681318681317
1650462713162.075,296.2882570002171,1324.5421245421244
1650462713163.152,296.41693811074924,1319.4139194139193
1650462713185.7258,296.41693811074924,1313.5531135531135
1650462713188.019,296.2882570002171,1309.1575091575091
1650462713188.313,296.2882570002171,1304.0293040293038
1650462713189.477,296.41693811074924,1297.4358974358975
1650462713195.761,296.41693811074924,1292.3076923076922
1650462713229.365,296.2882570002171,1290.8424908424909
1650462713229.644,296.2882570002171,1295.970695970696
1650462713230.791,296.41693811074924,1306.9597069597069
1650462713249.6592,296.41693811074924,1325.2747252747251
1650462713251.8489,296.5457310449707,1356.7765567765566
1650462713252.116,296.2882570002171,1399.2673992673992
1650462713253.234,296.5457310449707,1452.014652014652
1650462713254.483,296.5457310449707,1515.7509157509157
1650462713279.378,296.5457310449707,1588.278388278388
1650462713279.6619,296.41693811074924,1665.9340659340658
1650462713280.731,296.67463594870685,1739.9267399267399
1650462713305.782,296.5457310449707,1809.5238095238094
1650462713306.938,296.41693811074924,1869.5970695970695
1650462713314.539,296.5457310449707,1913.5531135531135
1650462713315.5261,296.67463594870685,1942.124542124542
1650462713316.831,296.67463594870685,1951.6483516483515
1650462713317.052,296.67463594870685,1942.8571428571427
1650462713342.149,296.5457310449707,1919.4139194139193
1650462713343.231,296.67463594870685,1879.8534798534797
1650462713369.626,296.67463594870685,1831.5018315018315
1650462713370.61,296.67463594870685,1777.2893772893772
1650462713370.825,296.5457310449707,1718.6813186813185
1650462713372.005,296.67463594870685,1657.8754578754579
1650462713396.872,296.67463594870685,1597.069597069597
1650462713397.074,296.80365296803654,1541.3919413919414
1650462713398.183,296.67463594870685,1490.10989010989
1650462713424.9949,296.80365296803654,1446.153846153846
1650462713425.582,296.80365296803654,1410.989010989011
1650462713426.799,296.93278224929304,1380.2197802197802
1650462713426.9731,296.80365296803654,1356.7765567765566
1650462713442.003,296.80365296803654,1342.1245421245421
1650462713473.1619,296.80365296803654,1333.3333333333333
1650462713473.368,296.93278224929304,1328.937728937729
1650462713473.687,296.93278224929304,1328.937728937729
1650462713474.4512,296.80365296803654,1332.6007326007325
1650462713483.091,297.06202393906426,1337.7289377289376
1650462713484.385,297.19137818419335,1345.7875457875457
1650462713484.607,296.80365296803654,1358.974358974359
1650462713498.2148,296.93278224929304,1375.8241758241757
1650462713524.6538,296.93278224929304,1396.3369963369962
1650462713550.843,296.93278224929304,1421.245421245421
1650462713551.06,297.06202393906426,1445.4212454212454
1650462713552.04,297.06202393906426,1470.3296703296703
1650462713558.216,297.06202393906426,1491.5750915750914
1650462713560.503,297.06202393906426,1512.8205128205127
1650462713560.7878,296.93278224929304,1531.135531135531
1650462713561.913,297.06202393906426,1546.5201465201465
1650462713587.051,297.06202393906426,1555.311355311355
1650462713588.206,297.06202393906426,1560.4395604395604
1650462713588.5579,297.19137818419335,1560.4395604395604
1650462713613.207,297.19137818419335,1556.7765567765566
1650462713614.315,297.19137818419335,1549.4505494505493
1650462713615.499,297.19137818419335,1536.9963369963368
1650462713615.907,297.06202393906426,1519.4139194139193
1650462713641.956,297.19137818419335,1498.9010989010987
1650462713643.1921,297.06202393906426,1475.4578754578754
1650462713669.542,297.3208451317796,1449.084249084249
1650462713669.7668,297.19137818419335,1425.6410256410256
1650462713670.655,297.3208451317796,1402.9304029304028
1650462713671.994,297.19137818419335,1381.6849816849815
1650462713674.215,297.3208451317796,1363.3699633699632
1650462713674.389,297.19137818419335,1347.985347985348
1650462713701.968,297.19137818419335,1334.065934065934
1650462713702.967,297.19137818419335,1321.6117216117216
1650462713703.1902,297.4504249291785,1312.087912087912
1650462713723.192,297.19137818419335,1304.0293040293038
1650462713729.429,297.3208451317796,1295.2380952380952
1650462713729.6208,297.3208451317796,1287.179487179487
1650462713729.776,297.4504249291785,1282.051282051282
1650462713743.499,297.3208451317796,1282.7838827838827
1650462713770.724,297.3208451317796,1287.9120879120878
1650462713771.924,297.4504249291785,1293.040293040293
1650462713772.219,297.4504249291785,1296.7032967032967
1650462713782.13,297.3208451317796,1301.8315018315018
1650462713783.082,297.4504249291785,1306.9597069597069
1650462713784.323,297.3208451317796,1312.087912087912
1650462713815.5378,297.58011772400266,1317.216117216117
1650462713815.806,297.4504249291785,1323.076923076923
1650462713816.951,297.4504249291785,1326.7399267399267
1650462713842.149,297.4504249291785,1329.6703296703297
1650462713843.094,297.4504249291785,1331.135531135531
1650462713843.2742,297.4504249291785,1334.065934065934
1650462713844.439,297.4504249291785,1335.5311355311355
1650462713853.3982,297.4504249291785,1337.7289377289376
1650462713887.0361,297.3208451317796,1339.9267399267399
1650462713887.25,297.3208451317796,1342.1245421245421
1650462713888.32,297.4504249291785,1343.5897435897434
1650462713902.976,297.4504249291785,1345.054945054945
1650462713903.1,297.58011772400266,1345.7875457875457
1650462713904.4111,297.4504249291785,1347.2527472527472
1650462713905.638,297.58011772400266,1346.5201465201465
1650462713919.167,297.58011772400266,1342.8571428571427
1650462713920.392,297.3208451317796,1340.6593406593406
1650462713920.5452,297.4504249291785,1336.263736263736
1650462713947.764,297.4504249291785,1333.3333333333333
1650462713948.053,297.58011772400266,1330.4029304029302
1650462713969.4,297.58011772400266,1328.2051282051282
1650462713969.636,297.58011772400266,1326.7399267399267
1650462713970.66,297.58011772400266,1321.6117216117216
1650462713976.799,297.58011772400266,1317.216117216117
1650462714004.3188,297.58011772400266,1311.3553113553112
1650462714004.533,297.4504249291785,1306.227106227106
1650462714005.635,297.7099236641222,1303.2967032967033
1650462714024.527,297.58011772400266,1301.098901098901
1650462714024.748,297.7099236641222,1299.6336996336995
1650462714025.814,297.58011772400266,1301.8315018315018
1650462714026.897,297.58011772400266,1309.89010989011
1650462714042.02,297.7099236641222,1325.2747252747251
1650462714042.211,297.58011772400266,1353.113553113553
1650462714068.368,297.58011772400266,1394.8717948717947
1650462714069.448,297.7099236641222,1449.8168498168498
1650462714082.936,297.7099236641222,1515.018315018315
1650462714083.131,297.83984289766533,1586.8131868131868
1650462714084.2522,297.58011772400266,1664.4688644688645
1650462714093.052,297.7099236641222,1739.9267399267399
1650462714101.6482,297.58011772400266,1810.2564102564102
1650462714126.686,297.83984289766533,1870.3296703296703
1650462714126.887,297.58011772400266,1916.4835164835163
1650462714148.7278,297.58011772400266,1940.6593406593406
1650462714148.977,297.83984289766533,1948.7179487179485
1650462714149.2742,297.83984289766533,1938.4615384615383
1650462714149.524,297.7099236641222,1911.3553113553112
1650462714153.1511,297.83984289766533,1869.5970695970695
1650462714190.831,297.7099236641222,1818.3150183150183
1650462714191.115,297.83984289766533,1761.172161172161
1650462714191.963,297.7099236641222,1701.8315018315018
1650462714202.128,297.83984289766533,1641.0256410256409
1650462714204.3691,297.83984289766533,1582.4175824175823
1650462714204.603,297.969875573019,1526.7399267399267
1650462714205.636,297.7099236641222,1478.3882783882782
1650462714219.804,297.83984289766533,1437.3626373626373
1650462714248.176,297.83984289766533,1404.3956043956043
1650462714249.41,298.1000218388295,1377.2893772893772
1650462714249.615,297.83984289766533,1358.974358974359
1650462714270.932,297.83984289766533,1345.054945054945
1650462714272.023,297.969875573019,1336.263736263736
1650462714273.0889,297.7099236641222,1333.3333333333333
1650462714273.466,297.969875573019,1329.6703296703297
1650462714278.251,297.83984289766533,1332.6007326007325
1650462714312.0679,297.83984289766533,1336.263736263736
1650462714312.266,297.969875573019,1345.7875457875457
1650462714313.222,297.969875573019,1358.974358974359
1650462714323.499,297.969875573019,1375.091575091575
1650462714324.398,297.969875573019,1394.8717948717947
1650462714324.605,298.1000218388295,1413.9194139194137
1650462714330.7158,297.969875573019,1432.9670329670328
1650462714359.515,298.1000218388295,1449.084249084249
1650462714360.7039,297.969875573019,1464.4688644688645
1650462714381.917,298.1000218388295,1482.051282051282
1650462714382.221,298.1000218388295,1501.098901098901
1650462714383.314,297.969875573019,1519.4139194139193
1650462714384.392,298.1000218388295,1534.7985347985348
1650462714398.132,297.969875573019,1543.5897435897434
1650462714398.33,297.969875573019,1547.985347985348
1650462714403.3489,297.969875573019,1545.7875457875457
1650462714431.905,298.1000218388295,1537.7289377289376
1650462714433.157,298.1000218388295,1524.5421245421244
1650462714433.386,298.1000218388295,1506.9597069597069
1650462714444.651,297.969875573019,1486.4468864468863
1650462714445.783,298.1000218388295,1464.4688644688645
1650462714454.604,297.969875573019,1439.5604395604394
1650462714454.8171,298.1000218388295,1413.1868131868132
1650462714479.7249,298.1000218388295,1388.278388278388
1650462714480.609,297.969875573019,1365.5677655677655
1650462714505.586,298.1000218388295,1347.985347985348
1650462714505.795,297.969875573019,1331.8681318681317
1650462714506.9548,298.1000218388295,1318.6813186813185
1650462714508.137,298.1000218388295,1309.1575091575091
1650462714521.751,298.1000218388295,1304.0293040293038
1650462714521.964,297.969875573019,1299.6336996336995
1650462714523.097,298.1000218388295,1296.7032967032967
1650462714557.077,297.83984289766533,1296.7032967032967
1650462714559.159,298.1000218388295,1296.7032967032967
1650462714559.378,298.1000218388295,1295.2380952380952
1650462714573.184,297.969875573019,1293.040293040293
1650462714579.6152,298.1000218388295,1291.5750915750914
1650462714580.0322,298.1000218388295,1290.8424908424909
1650462714609.649,297.969875573019,1292.3076923076922
1650462714610.6702,298.1000218388295,1295.970695970696
1650462714625.9028,298.1000218388295,1300.3663003663003
1650462714626.098,298.1000218388295,1304.7619047619046
1650462714626.89,297.969875573019,1306.9597069597069
1650462714628.146,298.1000218388295,1309.89010989011
1650462714629.259,298.1000218388295,1312.8205128205127
1650462714629.693,298.23028184400266,1314.2857142857142
1650462714656.991,297.969875573019,1317.9487179487178
1650462714658.204,298.1000218388295,1318.6813186813185
1650462714684.618,298.1000218388295,1320.14652014652
1650462714685.637,297.969875573019,1320.14652014652
1650462714685.961,297.969875573019,1320.14652014652
1650462714691.052,297.83984289766533,1318.6813186813185
1650462714695.7769,297.969875573019,1316.4835164835165
1650462714720.668,297.7099236641222,1316.4835164835165
1650462714720.8682,297.83984289766533,1315.7509157509157
1650462714721.944,297.969875573019,1315.7509157509157
1650462714743.1272,297.969875573019,1317.216117216117
1650462714744.301,297.83984289766533,1319.4139194139193
1650462714744.466,297.83984289766533,1318.6813186813185
1650462714745.6118,297.83984289766533,1316.4835164835165
1650462714759.186,297.83984289766533,1315.018315018315
1650462714759.37,297.83984289766533,1315.018315018315
1650462714788.1228,297.7099236641222,1313.5531135531135
1650462714789.433,297.83984289766533,1311.3553113553112
1650462714803.5679,297.7099236641222,1306.227106227106
1650462714804.418,297.7099236641222,1306.227106227106
1650462714804.7021,297.7099236641222,1307.6923076923076
1650462714809.5132,297.7099236641222,1307.6923076923076
1650462714823.418,297.58011772400266,1306.227106227106
1650462714823.77,297.7099236641222,1304.7619047619046
1650462714859.508,297.7099236641222,1302.5641025641025
1650462714860.805,297.83984289766533,1299.6336996336995
1650462714865.709,297.7099236641222,1295.970695970696
1650462714866.8262,297.83984289766533,1293.040293040293
1650462714866.976,297.7099236641222,1292.3076923076922
1650462714872.124,297.7099236641222,1292.3076923076922
1650462714900.927,297.58011772400266,1295.2380952380952
1650462714901.179,297.7099236641222,1304.7619047619046
1650462714902.113,297.58011772400266,1324.5421245421244
1650462714922.204,297.7099236641222,1358.974358974359
1650462714923.216,297.58011772400266,1405.8608058608058
1650462714924.4248,297.83984289766533,1465.9340659340658
1650462714924.673,297.58011772400266,1536.9963369963368
1650462714938.272,297.58011772400266,1615.3846153846152
1650462714964.669,297.58011772400266,1695.2380952380952
1650462714964.8782,297.58011772400266,1773.6263736263736
1650462714965.7979,297.58011772400266,1843.2234432234432
1650462714992.086,297.4504249291785,1898.168498168498
1650462714993.218,297.58011772400266,1936.263736263736
1650462714993.695,297.58011772400266,1951.6483516483515
1650462714998.1848,297.4504249291785,1947.2527472527472
1650462715023.381,297.4504249291785,1923.8095238095236
1650462715024.459,297.58011772400266,1887.9120879120878
1650462715024.8079,297.3208451317796,1839.5604395604394
1650462715049.662,297.4504249291785,1781.6849816849815
1650462715050.986,297.4504249291785,1720.14652014652
1650462715054.371,297.4504249291785,1659.3406593406592
1650462715055.472,297.4504249291785,1600.7326007326005
1650462715055.891,297.3208451317796,1544.3223443223442
1650462715056.97,297.4504249291785,1494.5054945054944
1650462715082.061,297.3208451317796,1452.7472527472526
1650462715082.3171,297.4504249291785,1418.3150183150183
1650462715083.2341,297.3208451317796,1392.6739926739926
1650462715111.892,297.3208451317796,1372.161172161172
1650462715113.09,297.3208451317796,1359.7069597069597
1650462715114.385,297.3208451317796,1351.6483516483515
1650462715114.647,297.19137818419335,1347.985347985348
1650462715123.291,297.3208451317796,1347.2527472527472
1650462715149.6191,297.3208451317796,1347.985347985348
1650462715150.643,297.06202393906426,1352.3809523809523
1650462715150.938,297.19137818419335,1357.5091575091574
1650462715174.5469,297.19137818419335,1364.102564102564
1650462715175.683,297.3208451317796,1372.8937728937728
1650462715176.882,297.19137818419335,1382.4175824175823
1650462715177.102,297.19137818419335,1394.139194139194
1650462715203.503,297.3208451317796,1404.3956043956043
1650462715204.3918,297.19137818419335,1416.8498168498168
1650462715204.607,297.19137818419335,1430.7692307692307
1650462715229.426,297.06202393906426,1449.8168498168498
1650462715230.636,297.19137818419335,1468.131868131868
1650462715235.481,297.19137818419335,1485.7142857142856
1650462715236.738,297.19137818419335,1498.168498168498
1650462715236.878,297.06202393906426,1506.227106227106
1650462715262.25,297.06202393906426,1507.6923076923076
1650462715263.002,297.19137818419335,1504.7619047619046
1650462715263.1719,297.3208451317796,1497.4358974358972
1650462715289.663,297.06202393906426,1485.7142857142856
1650462715293.22,297.19137818419335,1473.260073260073
1650462715294.27,297.19137818419335,1457.8754578754579
1650462715303.112,297.19137818419335,1442.4908424908424
1650462715303.326,297.06202393906426,1424.1758241758241
1650462715329.505,297.06202393906426,1406.5934065934066
1650462715330.591,297.06202393906426,1386.8131868131868
1650462715330.817,297.06202393906426,1367.7655677655678
1650462715354.5762,297.06202393906426,1349.4505494505493
1650462715355.748,297.06202393906426,1334.065934065934
1650462715356.858,297.06202393906426,1322.3443223443223
1650462715358.041,297.19137818419335,1312.087912087912
1650462715358.345,296.93278224929304,1304.0293040293038
1650462715383.3909,296.93278224929304,1296.7032967032967
1650462715384.5261,297.06202393906426,1290.10989010989
1650462715409.563,297.06202393906426,1284.9816849816848
1650462715409.783,296.93278224929304,1282.7838827838827
1650462715410.6729,297.06202393906426,1282.051282051282
1650462715411.857,296.93278224929304,1283.5164835164835
1650462715448.132,296.93278224929304,1282.7838827838827
1650462715448.3398,296.93278224929304,1279.8534798534797
1650462715463.189,297.06202393906426,1276.923076923077
1650462715464.4438,297.06202393906426,1275.4578754578754
1650462715464.7441,296.93278224929304,1273.260073260073
1650462715464.927,297.06202393906426,1273.260073260073
1650462715465.6638,296.93278224929304,1276.1904761904761
1650462715479.356,297.06202393906426,1278.3882783882782
1650462715479.553,297.06202393906426,1282.7838827838827
1650462715510.893,296.80365296803654,1284.2490842490843
1650462715511.919,296.93278224929304,1287.179487179487
1650462715528.06,296.93278224929304,1290.10989010989
1650462715528.2659,296.93278224929304,1294.5054945054944
1650462715529.4932,296.93278224929304,1297.4358974358975
1650462715530.592,296.80365296803654,1300.3663003663003
1650462715560.597,296.80365296803654,1302.5641025641025
1650462715561.751,296.80365296803654,1306.227106227106
1650462715561.9558,296.93278224929304,1309.89010989011
1650462715584.7969,297.06202393906426,1312.8205128205127
1650462715585.743,296.93278224929304,1312.087912087912
1650462715586.75,296.67463594870685,1311.3553113553112
1650462715586.947,296.93278224929304,1309.89010989011
1650462715588.175,296.93278224929304,1309.1575091575091
1650462715603.102,296.80365296803654,1308.4249084249084
1650462715628.198,296.93278224929304,1307.6923076923076
1650462715628.395,296.93278224929304,1306.227106227106
1650462715629.4912,296.93278224929304,1304.7619047619046
1650462715649.505,296.80365296803654,1302.5641025641025
1650462715650.6702,296.93278224929304,1299.6336996336995
1650462715650.865,296.80365296803654,1297.4358974358975
1650462715652.0022,296.93278224929304,1298.168498168498
1650462715678.271,296.93278224929304,1295.970695970696
1650462715679.354,296.93278224929304,1290.8424908424909
1650462715679.5198,296.80365296803654,1285.7142857142856
1650462715704.654,296.93278224929304,1282.051282051282
1650462715705.76,296.80365296803654,1278.3882783882782
1650462715714.336,296.80365296803654,1275.4578754578754
1650462715714.644,296.80365296803654,1272.5274725274724
1650462715715.71,296.67463594870685,1272.5274725274724
1650462715740.812,296.80365296803654,1270.3296703296703
1650462715741.009,296.80365296803654,1270.3296703296703
1650462715742.042,296.67463594870685,1268.8644688644688
1650462715768.3352,296.67463594870685,1268.131868131868
1650462715769.391,296.67463594870685,1265.9340659340658
1650462715769.5972,296.93278224929304,1265.2014652014652
1650462715773.386,296.80365296803654,1265.9340659340658
1650462715778.2432,296.80365296803654,1271.7948717948716
1650462715804.7148,296.80365296803654,1285.7142857142856
1650462715804.974,296.67463594870685,1312.087912087912
1650462715805.771,296.67463594870685,1351.6483516483515
1650462715830.7341,296.80365296803654,1406.5934065934066
1650462715831.9148,296.80365296803654,1472.5274725274724
1650462715832.1372,296.80365296803654,1545.7875457875457
1650462715838.2559,296.80365296803654,1625.6410256410256
1650462715839.406,296.80365296803654,1705.4945054945053
1650462715870.807,296.80365296803654,1777.2893772893772
1650462715871.0188,296.80365296803654,1837.3626373626373
1650462715871.984,296.67463594870685,1880.5860805860805
1650462715881.9348,296.80365296803654,1907.6923076923076
1650462715883.052,296.80365296803654,1915.018315018315
1650462715883.2131,296.80365296803654,1905.4945054945053
1650462715896.925,296.80365296803654,1879.8534798534797
1650462715927.1582,296.80365296803654,1841.7582417582416
1650462715928.0889,296.67463594870685,1791.2087912087911
1650462715948.093,296.67463594870685,1732.6007326007325
1650462715948.288,296.67463594870685,1670.3296703296703
1650462715949.455,296.80365296803654,1607.3260073260071
1650462715950.578,296.67463594870685,1547.2527472527472
1650462715951.773,296.67463594870685,1493.040293040293
1650462715951.927,296.67463594870685,1444.6886446886447
1650462715984.954,296.80365296803654,1408.7912087912086
1650462715985.62,296.80365296803654,1380.952380952381
1650462716004.55,296.80365296803654,1359.7069597069597
1650462716004.752,296.67463594870685,1344.3223443223442
1650462716005.7769,296.67463594870685,1335.5311355311355
1650462716006.9038,296.80365296803654,1332.6007326007325
1650462716020.653,296.80365296803654,1333.3333333333333
1650462716020.8909,296.67463594870685,1335.5311355311355
1650462716045.543,296.67463594870685,1339.9267399267399
1650462716046.643,296.80365296803654,1344.3223443223442
1650462716067.1948,296.93278224929304,1348.7179487179487
1650462716067.432,296.67463594870685,1354.5787545787546
1650462716068.3848,296.80365296803654,1364.102564102564
1650462716069.3591,296.67463594870685,1373.6263736263736
1650462716083.28,296.80365296803654,1383.8827838827838
1650462716083.4849,296.67463594870685,1396.3369963369962
1650462716115.906,296.80365296803654,1408.058608058608
1650462716116.918,296.67463594870685,1419.7802197802198
1650462716125.814,296.80365296803654,1430.7692307692307
1650462716126.015,296.67463594870685,1441.7582417582416
1650462716126.969,296.80365296803654,1450.5494505494505
1650462716128.133,296.67463594870685,1455.6776556776556
1650462716142.0479,296.80365296803654,1459.3406593406592
1650462716142.25,296.67463594870685,1460.07326007326
1650462716167.271,296.67463594870685,1458.6080586080584
1650462716168.235,296.80365296803654,1454.212454212454
1650462716193.301,296.80365296803654,1447.6190476190475
1650462716193.513,296.80365296803654,1438.095238095238
1650462716194.536,296.80365296803654,1426.3736263736262
1650462716195.605,296.80365296803654,1411.7216117216117
1650462716222.033,296.80365296803654,1397.069597069597
1650462716222.239,296.67463594870685,1381.6849816849815
1650462716223.168,296.80365296803654,1366.3003663003662
1650462716248.137,296.93278224929304,1351.6483516483515
1650462716249.389,296.80365296803654,1336.263736263736
1650462716249.592,296.80365296803654,1323.8095238095236
1650462716258.374,296.80365296803654,1312.8205128205127
1650462716283.466,296.80365296803654,1305.4945054945053
1650462716284.376,296.67463594870685,1299.6336996336995
1650462716284.579,296.93278224929304,1295.2380952380952
1650462716310.884,296.93278224929304,1293.7728937728937
1650462716313.121,297.06202393906426,1290.10989010989
1650462716314.465,297.06202393906426,1288.6446886446886
1650462716314.654,296.93278224929304,1287.9120879120878
1650462716315.78,297.06202393906426,1287.9120879120878
1650462716320.8052,297.06202393906426,1284.9816849816848
1650462716345.64,296.80365296803654,1285.7142857142856
1650462716345.8901,296.93278224929304,1283.5164835164835
1650462716346.938,297.06202393906426,1282.7838827838827
1650462716365.624,297.06202393906426,1279.8534798534797
1650462716366.8398,297.06202393906426,1280.5860805860805
1650462716367.0298,296.93278224929304,1281.3186813186812
1650462716368.1929,297.06202393906426,1282.051282051282
1650462716381.795,297.06202393906426,1284.9816849816848
1650462716409.1858,297.19137818419335,1286.4468864468863
1650462716409.353,296.93278224929304,1289.3772893772893
1650462716410.534,297.19137818419335,1289.3772893772893
1650462716424.364,297.06202393906426,1289.3772893772893
1650462716425.584,297.3208451317796,1287.9120879120878
1650462716426.0408,297.06202393906426,1284.2490842490843
1650462716434.304,297.19137818419335,1283.5164835164835
1650462716459.1921,297.19137818419335,1282.051282051282
1650462716459.389,297.06202393906426,1282.7838827838827
1650462716460.554,297.19137818419335,1283.5164835164835
1650462716484.3699,297.19137818419335,1287.179487179487
1650462716485.425,297.19137818419335,1291.5750915750914
1650462716486.762,297.4504249291785,1295.970695970696
1650462716487.031,297.19137818419335,1300.3663003663003
1650462716500.696,297.19137818419335,1303.2967032967033
1650462716528.248,297.19137818419335,1304.0293040293038
1650462716528.488,297.3208451317796,1303.2967032967033
1650462716529.5168,297.19137818419335,1302.5641025641025
1650462716545.764,297.3208451317796,1302.5641025641025
1650462716546.854,297.19137818419335,1301.8315018315018
1650462716560.914,297.19137818419335,1300.3663003663003
1650462716561.1638,297.19137818419335,1297.4358974358975
1650462716561.27,297.19137818419335,1297.4358974358975
1650462716587.271,297.4504249291785,1295.2380952380952
1650462716588.215,297.19137818419335,1295.2380952380952
1650462716588.47,297.3208451317796,1292.3076923076922
1650462716603.479,297.3208451317796,1290.8424908424909
1650462716604.448,297.4504249291785,1285.7142857142856
1650462716613.122,297.4504249291785,1281.3186813186812
1650462716613.3562,297.4504249291785,1275.4578754578754
1650462716622.01,297.4504249291785,1271.7948717948716
1650462716651.885,297.4504249291785,1266.6666666666665
1650462716652.082,297.4504249291785,1261.5384615384614
1650462716653.18,297.4504249291785,1254.9450549450548
1650462716663.315,297.58011772400266,1252.014652014652
1650462716664.374,297.58011772400266,1249.8168498168498
1650462716664.573,297.58011772400266,1251.2820512820513
1650462716679.464,297.58011772400266,1255.6776556776556
1650462716680.759,297.58011772400266,1271.062271062271
1650462716719.543,297.58011772400266,1297.4358974358975
1650462716719.818,297.7099236641222,1336.9963369963368
1650462716720.762,297.58011772400266,1387.5457875457876
1650462716721.968,297.7099236641222,1452.014652014652
1650462716723.1108,297.7099236641222,1522.3443223443223
1650462716737.064,297.7099236641222,1597.8021978021977
1650462716737.3518,297.7099236641222,1670.3296703296703
1650462716763.29,297.7099236641222,1735.5311355311353
1650462716764.395,297.7099236641222,1789.7435897435896
1650462716764.707,297.969875573019,1830.7692307692307
1650462716787.127,297.7099236641222,1854.9450549450548
1650462716788.2632,297.7099236641222,1862.2710622710622
1650462716789.382,297.83984289766533,1853.4798534798533
1650462716803.345,297.969875573019,1830.7692307692307
1650462716803.601,297.7099236641222,1796.3369963369962
1650462716829.522,297.83984289766533,1751.6483516483515
1650462716830.652,297.83984289766533,1697.4358974358972
1650462716830.8762,298.1000218388295,1639.5604395604394
1650462716844.4631,297.83984289766533,1580.2197802197802
1650462716845.711,297.969875573019,1526.007326007326
1650462716846.7578,297.969875573019,1476.1904761904761
1650462716875.815,298.23028184400266,1433.6996336996335
1650462716876.014,297.83984289766533,1398.5347985347985
1650462716876.991,297.969875573019,1368.4981684981683
1650462716904.8281,298.1000218388295,1343.5897435897434
1650462716905.545,298.1000218388295,1328.2051282051282
1650462716905.7468,298.1000218388295,1317.9487179487178
1650462716906.943,298.23028184400266,1313.5531135531135
1650462716920.706,298.23028184400266,1312.8205128205127
1650462716921.8699,298.1000218388295,1315.7509157509157
1650462716922.104,298.23028184400266,1317.9487179487178
1650462716948.256,298.1000218388295,1323.8095238095236
1650462716949.51,298.360655737705,1331.135531135531
1650462716969.537,298.360655737705,1339.194139194139
1650462716969.7349,298.360655737705,1348.7179487179487
1650462716978.475,298.360655737705,1361.904761904762
1650462716978.698,298.23028184400266,1378.021978021978
1650462716978.957,298.4911436693637,1395.6043956043954
1650462717014.7368,298.360655737705,1412.4542124542124
1650462717015.697,298.4911436693637,1432.9670329670328
1650462717024.526,298.360655737705,1449.8168498168498
1650462717024.7969,298.4911436693637,1465.201465201465
1650462717025.734,298.360655737705,1476.1904761904761
1650462717026.8518,298.360655737705,1487.9120879120878
1650462717040.8872,298.62174578866774,1490.10989010989
1650462717041.138,298.62174578866774,1484.9816849816848
1650462717074.6418,298.62174578866774,1473.260073260073
1650462717075.642,298.62174578866774,1458.6080586080584
1650462717083.3909,298.62174578866774,1440.2930402930401
1650462717084.381,298.752462245568,1421.245421245421
1650462717084.6812,298.62174578866774,1403.6630036630036
1650462717089.566,298.752462245568,1387.5457875457876
1650462717103.376,298.62174578866774,1372.161172161172
1650462717103.69,298.752462245568,1358.2417582417581
1650462717129.837,298.62174578866774,1345.054945054945
1650462717130.785,298.8832931902781,1333.3333333333333
1650462717146.998,298.8832931902781,1323.076923076923
1650462717148.119,299.01423877327494,1312.8205128205127
1650462717148.3271,298.8832931902781,1304.0293040293038
1650462717149.488,298.8832931902781,1295.970695970696
1650462717163.2449,298.8832931902781,1287.9120879120878
1650462717163.502,298.8832931902781,1281.3186813186812
1650462717188.553,298.8832931902781,1274.7252747252746
1650462717189.6091,299.01423877327494,1268.131868131868
1650462717212.1538,299.01423877327494,1263.003663003663
1650462717213.15,299.01423877327494,1260.8058608058607
1650462717213.351,299.01423877327494,1257.8754578754579
1650462717214.456,299.1452991452992,1257.142857142857
1650462717239.554,299.1452991452992,1259.3406593406592
1650462717239.764,299.1452991452992,1259.3406593406592
1650462717240.822,299.1452991452992,1260.8058608058607
1650462717266.003,299.1452991452992,1264.4688644688645
1650462717267.0159,299.1452991452992,1269.5970695970695
1650462717273.124,299.27647445735585,1275.4578754578754
1650462717273.324,299.1452991452992,1281.3186813186812
1650462717274.42,299.27647445735585,1287.9120879120878
1650462717300.853,299.27647445735585,1291.5750915750914
1650462717301.0671,299.4077648607151,1295.2380952380952
1650462717302.0278,299.4077648607151,1297.4358974358975
1650462717328.327,299.4077648607151,1300.3663003663003
1650462717329.5159,299.4077648607151,1301.8315018315018
1650462717338.255,299.4077648607151,1301.8315018315018
1650462717338.4521,299.4077648607151,1300.3663003663003
1650462717339.347,299.53917050691246,1301.098901098901
1650462717365.804,299.53917050691246,1300.3663003663003
1650462717365.9949,299.53917050691246,1301.098901098901
1650462717366.932,299.4077648607151,1299.6336996336995
1650462717390.874,299.53917050691246,1298.9010989010987
1650462717391.976,299.53917050691246,1299.6336996336995
1650462717392.172,299.67069154774975,1301.098901098901
1650462717392.243,299.67069154774975,1301.098901098901
1650462717418.3918,299.67069154774975,1300.3663003663003
1650462717419.3,299.80232813529545,1298.168498168498
1650462717430.738,299.80232813529545,1293.7728937728937
1650462717430.907,299.53917050691246,1292.3076923076922
1650462717431.952,299.80232813529545,1292.3076923076922
1650462717454.617,299.80232813529545,1294.5054945054944
1650462717455.456,299.80232813529545,1295.2380952380952
1650462717455.666,299.80232813529545,1293.7728937728937
1650462717484.7551,299.9340804218853,1291.5750915750914
1650462717485.62,299.9340804218853,1288.6446886446886
1650462717503.4849,299.9340804218853,1284.2490842490843
1650462717503.966,299.80232813529545,1282.051282051282
1650462717504.3792,299.9340804218853,1282.051282051282
1650462717505.729,299.9340804218853,1284.2490842490843
1650462717520.866,300.0659485601231,1292.3076923076922
1650462717521.199,299.9340804218853,1306.9597069597069
1650462717550.9329,300.0659485601231,1329.6703296703297
1650462717551.769,300.197932702881,1361.904761904762
1650462717561.021,300.0659485601231,1403.6630036630036
1650462717561.338,300.0659485601231,1456.4102564102564
1650462717561.965,300.197932702881,1516.4835164835163
1650462717571.037,300.197932702881,1580.2197802197802
1650462717579.735,299.9340804218853,1643.2234432234432
1650462717580.042,300.197932702881,1698.168498168498
1650462717604.7239,300.0659485601231,1745.054945054945
1650462717605.649,300.33003300330034,1778.021978021978
1650462717625.8308,300.197932702881,1799.2673992673992
1650462717626.121,300.197932702881,1805.8608058608058
1650462717626.9072,300.33003300330034,1799.9999999999998
1650462717628.171,300.33003300330034,1778.7545787545787
1650462717642.039,300.33003300330034,1749.4505494505493
1650462717642.239,300.33003300330034,1710.6227106227104
1650462717669.891,300.46224961479203,1667.3992673992673
1650462717670.667,300.33003300330034,1617.5824175824175
1650462717683.383,300.46224961479203,1567.7655677655678
1650462717683.6692,300.46224961479203,1519.4139194139193
1650462717684.518,300.33003300330034,1476.1904761904761
1650462717698.292,300.46224961479203,1435.164835164835
1650462717698.492,300.59458269103726,1402.9304029304028
1650462717735.92,300.46224961479203,1377.2893772893772
1650462717737.001,300.59458269103726,1360.4395604395604
1650462717740.584,300.72703238598814,1348.7179487179487
1650462717741.845,300.59458269103726,1342.1245421245421
1650462717742.041,300.59458269103726,1339.9267399267399
1650462717746.9348,300.72703238598814,1339.9267399267399
1650462717761.036,300.72703238598814,1340.6593406593406
1650462717761.238,300.72703238598814,1341.3919413919414
1650462717789.651,300.8595988538682,1340.6593406593406
1650462717790.752,300.8595988538682,1344.3223443223442
1650462717810.745,300.72703238598814,1348.7179487179487
1650462717811.835,300.8595988538682,1354.5787545787546
1650462717812.0352,300.8595988538682,1363.3699633699632
1650462717813.2578,300.8595988538682,1376.5567765567764
1650462717823.504,300.72703238598814,1390.4761904761904
1650462717848.154,300.72703238598814,1403.6630036630036
1650462717848.35,300.9922822491731,1415.3846153846152
1650462717869.654,300.9922822491731,1427.106227106227
1650462717870.634,300.8595988538682,1438.095238095238
1650462717870.833,300.9922822491731,1446.153846153846
1650462717872.009,300.9922822491731,1449.8168498168498
1650462717873.2249,300.9922822491731,1450.5494505494505
1650462717902.228,301.1250827266711,1449.084249084249
1650462717903.115,300.8595988538682,1446.153846153846
1650462717903.311,301.1250827266711,1437.3626373626373
1650462717923.522,300.9922822491731,1427.106227106227
1650462717924.4321,300.9922822491731,1412.4542124542124
1650462717925.606,301.1250827266711,1397.8021978021977
1650462717925.804,300.9922822491731,1380.952380952381
1650462717934.634,300.9922822491731,1366.3003663003662
1650462717962.07,301.1250827266711,1349.4505494505493
1650462717962.3042,300.9922822491731,1333.3333333333333
1650462717963.213,301.1250827266711,1319.4139194139193
1650462717988.5718,301.1250827266711,1309.1575091575091
1650462717989.399,300.9922822491731,1300.3663003663003
1650462717990.552,300.9922822491731,1293.7728937728937
1650462717990.741,300.9922822491731,1287.9120879120878
1650462717999.663,301.1250827266711,1284.9816849816848
1650462718038.473,300.8595988538682,1283.5164835164835
1650462718039.191,300.9922822491731,1282.7838827838827
1650462718039.368,300.9922822491731,1281.3186813186812
1650462718046.946,300.9922822491731,1280.5860805860805
1650462718048.025,300.9922822491731,1279.8534798534797
1650462718049.239,300.8595988538682,1279.8534798534797
1650462718049.469,300.8595988538682,1279.120879120879
1650462718063.781,300.8595988538682,1280.5860805860805
1650462718098.323,300.8595988538682,1281.3186813186812
1650462718098.5242,300.72703238598814,1282.7838827838827
1650462718099.3892,300.72703238598814,1284.9816849816848
1650462718103.386,300.72703238598814,1286.4468864468863
1650462718104.385,300.46224961479203,1287.9120879120878
1650462718104.5908,300.59458269103726,1290.10989010989
1650462718118.43,300.59458269103726,1294.5054945054944
1650462718163.503,300.46224961479203,1296.7032967032967
1650462718164.4412,300.33003300330034,1296.7032967032967
1650462718164.695,300.46224961479203,1295.2380952380952
1650462718165.841,300.33003300330034,1296.7032967032967
1650462718166.917,300.33003300330034,1301.098901098901
1650462718168.09,300.197932702881,1304.0293040293038
1650462718182.054,300.0659485601231,1306.9597069597069
1650462718182.2542,299.9340804218853,1307.6923076923076
1650462718183.2012,299.80232813529545,1309.89010989011
1650462718207.969,299.80232813529545,1311.3553113553112
1650462718208.152,299.80232813529545,1310.6227106227104
1650462718209.265,299.67069154774975,1307.6923076923076
1650462718226.748,299.4077648607151,1306.9597069597069
1650462718227.935,299.4077648607151,1305.4945054945053
1650462718236.831,299.1452991452992,1304.0293040293038
1650462718237.059,299.27647445735585,1304.7619047619046
1650462718262.254,299.01423877327494,1307.6923076923076
1650462718263.077,299.01423877327494,1310.6227106227104
1650462718263.303,298.8832931902781,1314.2857142857142
1650462718283.498,298.752462245568,1315.7509157509157
1650462718284.6328,298.62174578866774,1317.216117216117
1650462718285.584,298.4911436693637,1317.216117216117
1650462718299.557,298.360655737705,1315.018315018315
1650462718299.915,298.23028184400266,1312.087912087912
1650462718337.218,298.1000218388295,1308.4249084249084
1650462718338.1702,297.969875573019,1303.2967032967033
1650462718338.478,297.83984289766533,1299.6336996336995
1650462718343.252,297.7099236641222,1294.5054945054944
1650462718344.47,297.3208451317796,1290.8424908424909
1650462718350.769,297.3208451317796,1284.9816849816848
1650462718389.57,297.19137818419335,1278.3882783882782
1650462718389.782,297.19137818419335,1273.260073260073
1650462718390.785,296.93278224929304,1269.5970695970695
1650462718408.398,296.80365296803654,1265.9340659340658
1650462718409.3982,296.67463594870685,1262.2710622710622
1650462718409.621,296.5457310449707,1260.8058608058607
1650462718410.658,296.1596875678021,1265.2014652014652
1650462718411.797,295.9028831562974,1273.9926739926739
1650462718440.793,295.9028831562974,1287.9120879120878
1650462718440.9932,295.5185105001082,1313.5531135531135
1650462718442.013,295.3906080934862,1350.18315018315
1650462718467.1472,295.1351351351351,1400.0
1650462718468.22,295.0075642965204,1457.8754578754579
1650462718468.469,294.8801036941024,1523.0769230769229
1650462718470.745,294.4983818770226,1592.6739926739926
1650462718497.153,294.4983818770226,1658.6080586080584
1650462718524.6711,294.1176470588235,1717.216117216117
1650462718524.92,294.1176470588235,1761.172161172161
1650462718525.851,293.73789541639763,1794.139194139194
1650462718529.581,293.73789541639763,1810.989010989011
1650462718530.591,293.2330827067669,1813.9194139194137
1650462718530.9082,293.48527198451944,1797.8021978021977
1650462718531.986,292.85561038403773,1769.9633699633698
1650462718540.994,292.85561038403773,1731.135531135531
1650462718565.781,292.4791086350975,1684.9816849816848
1650462718565.978,292.3538230884557,1634.4322344322343
1650462718567.138,292.1035737213781,1585.3479853479853
1650462718588.552,291.9786096256684,1537.7289377289376
1650462718589.46,291.7290019234879,1491.5750915750914
1650462718589.7478,291.6043580431531,1450.5494505494505
1650462718590.7039,291.106845809341,1417.5824175824175
1650462718620.908,291.106845809341,1388.278388278388
1650462718621.1592,290.85872576177286,1364.102564102564
1650462718622.088,290.6110283159463,1345.7875457875457
1650462718644.93,290.36375239310786,1333.3333333333333
1650462718645.71,290.11689691817213,1326.007326007326
1650462718646.02,289.99362651370296,1323.076923076923
1650462718646.969,289.8704608197069,1320.8791208791208
1650462718660.992,289.37884248463007,1320.14652014652
1650462718661.794,289.25619834710744,1321.6117216117216
1650462718700.6208,289.0112216811349,1327.4725274725274
1650462718700.8281,288.76665961497775,1334.065934065934
1650462718701.948,288.5225110970197,1339.9267399267399
1650462718703.1729,288.27877507919743,1347.985347985348
1650462718704.306,288.0354505169867,1355.3113553113553
1650462718704.563,287.9139422062856,1364.102564102564
1650462718718.073,287.5500315989046,1373.6263736263736
1650462718743.071,287.42893240682247,1384.6153846153845
1650462718744.1968,287.1870397643593,1398.5347985347985
1650462718744.3308,287.06624605678235,1410.2564102564102
1650462718764.3982,286.7044738500315,1422.7106227106226
1650462718765.6008,286.3436123348018,1430.7692307692307
1650462718793.398,286.3436123348018,1435.8974358974358
1650462718793.642,286.10354223433245,1436.6300366300366
1650462718794.458,285.7441909148001,1435.8974358974358
1650462718823.345,285.62460765850597,1429.3040293040292
1650462718823.7258,285.3857411666318,1421.9780219780218
1650462718824.5781,285.26645768025077,1410.989010989011
1650462718825.7192,284.909204758923,1399.2673992673992
1650462718826.894,284.909204758923,1386.080586080586
1650462718828.0188,284.5528455284553,1373.6263736263736
1650462718828.196,284.4342571369035,1360.4395604395604
1650462718842.142,284.0790842872008,1349.4505494505493
1650462718874.655,283.96089036821303,1337.7289377289376
1650462718883.292,283.606897984625,1327.4725274725274
1650462718883.489,283.4890965732087,1317.216117216117
1650462718884.534,283.2537870927578,1306.9597069597069
1650462718885.64,283.2537870927578,1297.4358974358975
1650462718894.531,282.9015544041451,1289.3772893772893
1650462718894.723,282.9015544041451,1281.3186813186812
1650462718900.958,282.43327126008694,1277.6556776556777
1650462718931.9749,282.31644260599796,1273.260073260073
1650462718942.232,282.31644260599796,1272.5274725274724
1650462718942.426,282.0830750154991,1272.5274725274724
1650462718943.1191,281.73374613003097,1274.7252747252746
1650462718944.375,281.6174953579534,1275.4578754578754
1650462718958.2751,281.3852813852814,1276.923076923077
1650462718958.463,281.26931794766125,1279.120879120879
1650462718984.769,281.0376775787523,1280.5860805860805
1650462718985.532,280.92200041160737,1280.5860805860805
1650462719007.0469,280.6909315237508,1278.3882783882782
1650462719007.26,280.57553956834533,1274.7252747252746
1650462719008.3352,280.34504004929147,1272.5274725274724
1650462719009.479,280.11491894110407,1273.260073260073
1650462719023.446,279.88517531269224,1273.9926739926739
1650462719023.8892,279.88517531269224,1275.4578754578754
1650462719050.966,279.4268167860799,1278.3882783882782
1650462719051.84,279.5412656154004,1278.3882783882782
1650462719063.196,279.31246163290365,1279.8534798534797
1650462719063.6138,279.1982000409082,1278.3882783882782
1650462719064.476,278.855975485189,1279.120879120879
1650462719073.463,278.742086992036,1278.3882783882782
1650462719082.041,278.62829148805884,1278.3882783882782
1650462719082.235,278.62829148805884,1276.1904761904761
1650462719108.334,278.28746177370033,1275.4578754578754
1650462719109.477,278.17403708987166,1274.7252747252746
1650462719109.7478,278.17403708987166,1273.9926739926739
1650462719124.858,277.94746487477096,1273.9926739926739
1650462719125.71,277.8343171178506,1275.4578754578754
1650462719134.761,277.7212614445575,1276.1904761904761
1650462719143.272,277.4954258995731,1278.3882783882782
1650462719143.465,277.4954258995731,1279.120879120879
1650462719168.4412,277.1573604060914,1282.051282051282
1650462719169.378,277.2699573430835,1282.051282051282
1650462719188.15,277.1573604060914,1280.5860805860805
1650462719188.393,277.1573604060914,1279.120879120879
1650462719189.614,276.8201176232002,1278.3882783882782
1650462719190.705,276.8201176232002,1276.1904761904761
1650462719225.851,276.70788566795056,1271.7948717948716
1650462719226.0051,276.5957446808511,1267.3992673992673
1650462719226.9531,276.3717351690626,1266.6666666666665
1650462719245.6938,276.483694551347,1263.003663003663
1650462719246.826,276.2598664238009,1260.07326007326
1650462719246.998,276.2598664238009,1257.8754578754579
1650462719248.2158,276.03640040444895,1255.6776556776556
1650462719262.1292,276.03640040444895,1254.212454212454
1650462719263.042,275.7018784084023,1252.7472527472526
1650462719263.281,275.8132956152758,1249.084249084249
1650462719302.241,275.7018784084023,1245.4212454212454
1650462719303.13,275.7018784084023,1243.2234432234432
1650462719315.971,275.59055118110234,1238.8278388278388
1650462719316.1672,275.7018784084023,1237.3626373626373
1650462719316.999,275.3681662295743,1238.8278388278388
1650462719318.243,275.3681662295743,1241.0256410256409
1650462719343.404,275.2571082879613,1244.6886446886447
1650462719343.698,275.2571082879613,1251.2820512820513
1650462719344.501,275.14613989115094,1261.5384615384614
1650462719370.826,275.14613989115094,1279.8534798534797
1650462719371.928,275.03526093088857,1307.6923076923076
1650462719372.129,275.03526093088857,1344.3223443223442
1650462719374.45,274.81377088785985,1391.2087912087911
1650462719399.537,274.9244712990936,1445.4212454212454
1650462719399.886,274.81377088785985,1504.7619047619046
1650462719400.851,274.81377088785985,1565.5677655677655
1650462719427.355,274.5926372963186,1622.7106227106226
1650462719428.2551,274.7031595894546,1671.7948717948716
1650462719428.4949,274.5926372963186,1709.1575091575091
1650462719435.947,274.5926372963186,1733.3333333333333
1650462719462.219,274.4822039010657,1743.5897435897434
1650462719463.145,274.4822039010657,1739.194139194139
1650462719463.375,274.3718592964824,1721.6117216117216
1650462719463.6892,274.4822039010657,1690.8424908424906
1650462719488.3462,274.2616033755274,1653.4798534798533
1650462719489.39,274.2616033755274,1610.989010989011
1650462719494.484,274.3718592964824,1565.5677655677655
1650462719494.674,274.3718592964824,1520.14652014652
1650462719499.732,274.15143603133157,1477.6556776556777
1650462719529.638,274.15143603133157,1436.6300366300366
1650462719530.644,274.15143603133157,1399.2673992673992
1650462719530.879,274.2616033755274,1369.230769230769
1650462719553.504,273.9313666465984,1348.7179487179487
1650462719554.488,274.15143603133157,1332.6007326007325
1650462719556.8708,273.9313666465984,1322.3443223443223
1650462719557.08,274.0413571571973,1316.4835164835165
1650462719558.219,274.0413571571973,1315.7509157509157
1650462719584.951,273.9313666465984,1315.7509157509157
1650462719585.742,274.0413571571973,1317.9487179487178
1650462719585.9949,274.15143603133157,1318.6813186813185
1650462719612.155,273.9313666465984,1323.076923076923
1650462719613.262,273.9313666465984,1326.007326007326
1650462719614.485,274.0413571571973,1330.4029304029302
1650462719614.753,273.9313666465984,1336.263736263736
1650462719623.634,273.9313666465984,1345.054945054945
1650462719648.1272,273.9313666465984,1352.3809523809523
1650462719649.462,273.8214643931795,1362.6373626373625
1650462719649.666,274.0413571571973,1369.9633699633698
1650462719674.67,273.7116502907559,1378.021978021978
1650462719675.432,273.9313666465984,1384.6153846153845
1650462719676.925,273.9313666465984,1393.4065934065934
1650462719677.126,273.9313666465984,1401.4652014652013
1650462719703.359,273.8214643931795,1410.989010989011
1650462719704.5168,273.9313666465984,1415.3846153846152
1650462719704.727,273.9313666465984,1420.5128205128203
1650462719729.417,273.9313666465984,1421.9780219780218
1650462719729.705,273.8214643931795,1421.9780219780218
1650462719767.4849,273.8214643931795,1419.7802197802198
1650462719767.8872,273.9313666465984,1414.6520146520145
1650462719768.0308,274.15143603133157,1405.8608058608058
1650462719768.3079,273.8214643931795,1397.069597069597
1650462719768.628,274.0413571571973,1383.8827838827838
1650462719781.689,274.0413571571973,1369.9633699633698
1650462719781.852,274.15143603133157,1356.0439560439559
1650462719783.001,273.9313666465984,1342.8571428571427
1650462719784.103,274.15143603133157,1328.937728937729
1650462719797.934,274.0413571571973,1316.4835164835165
1650462719798.154,274.15143603133157,1306.9597069597069
1650462719829.334,274.0413571571973,1302.5641025641025
1650462719830.573,274.2616033755274,1298.9010989010987
1650462719844.1702,274.2616033755274,1299.6336996336995
1650462719844.33,274.3718592964824,1299.6336996336995
1650462719845.5889,274.2616033755274,1299.6336996336995
1650462719846.645,274.3718592964824,1301.098901098901
1650462719860.543,274.3718592964824,1298.168498168498
1650462719860.7532,274.4822039010657,1295.2380952380952
1650462719890.6318,274.2616033755274,1293.040293040293
1650462719891.833,274.5926372963186,1290.8424908424909
1650462719908.0132,274.5926372963186,1288.6446886446886
1650462719908.17,274.7031595894546,1285.7142857142856
1650462719909.262,274.5926372963186,1284.2490842490843
1650462719910.391,274.5926372963186,1282.7838827838827
1650462719935.425,274.7031595894546,1279.8534798534797
1650462719935.565,274.81377088785985,1279.120879120879
1650462719936.748,274.7031595894546,1282.7838827838827
1650462719963.064,274.9244712990936,1284.9816849816848
1650462719964.182,274.7031595894546,1288.6446886446886
1650462719964.36,275.03526093088857,1290.8424908424909
1650462719966.0808,275.03526093088857,1295.970695970696
1650462719979.186,275.14613989115094,1299.6336996336995
1650462719979.386,275.2571082879613,1301.8315018315018
1650462720008.058,275.2571082879613,1303.2967032967033
1650462720009.244,275.2571082879613,1305.4945054945053
1650462720029.174,275.47931382441976,1306.9597069597069
1650462720029.358,275.47931382441976,1304.7619047619046
1650462720030.555,275.7018784084023,1304.0293040293038
1650462720031.7222,275.47931382441976,1304.7619047619046
1650462720040.4028,275.59055118110234,1305.4945054945053
1650462720066.784,275.59055118110234,1307.6923076923076
1650462720066.984,275.7018784084023,1306.227106227106
1650462720068.157,275.8132956152758,1304.7619047619046
1650462720085.542,275.9248029108551,1303.2967032967033
1650462720090.421,276.03640040444895,1303.2967032967033
1650462720090.683,276.1480882055432,1304.0293040293038
1650462720124.397,276.03640040444895,1302.5641025641025
1650462720125.627,276.1480882055432,1298.168498168498
1650462720125.8198,276.3717351690626,1293.040293040293
1650462720140.646,276.483694551347,1284.9816849816848
1650462720141.8271,276.3717351690626,1282.051282051282
1650462720142.8982,276.5957446808511,1280.5860805860805
1650462720144.223,276.70788566795056,1277.6556776556777
1650462720144.422,276.70788566795056,1273.260073260073
1650462720153.053,276.70788566795056,1269.5970695970695
1650462720186.853,276.93244065733415,1266.6666666666665
1650462720187.1729,276.8201176232002,1266.6666666666665
1650462720188.414,277.04485488126653,1265.9340659340658
1650462720205.593,276.93244065733415,1265.9340659340658
1650462720206.767,277.1573604060914,1266.6666666666665
1650462720206.9631,277.2699573430835,1265.2014652014652
1650462720208.172,277.4954258995731,1264.4688644688645
1650462720216.8281,277.2699573430835,1263.7362637362637
1650462720245.579,277.4954258995731,1261.5384615384614
1650462720246.845,277.38264580369844,1261.5384615384614
1650462720247.035,277.60829774252596,1263.003663003663
1650462720264.38,277.7212614445575,1266.6666666666665
1650462720265.466,277.8343171178506,1275.4578754578754
1650462720265.675,277.94746487477096,1291.5750915750914
1650462720266.799,278.0607048278672,1317.216117216117
1650462720280.617,278.0607048278672,1352.3809523809523
1650462720306.7852,278.17403708987166,1394.139194139194
1650462720306.983,278.28746177370033,1443.956043956044
1650462720308.053,278.40097899245364,1498.168498168498
1650462720329.427,278.28746177370033,1552.3809523809523
1650462720330.4082,278.51458885941645,1606.5934065934066
1650462720331.721,278.742086992036,1654.9450549450548
1650462720331.783,278.855975485189,1693.7728937728937
1650462720360.6392,278.742086992036,1720.8791208791208
1650462720361.76,278.9699570815451,1734.7985347985348
1650462720385.51,279.08403189531793,1735.5311355311353
1650462720385.739,279.31246163290365,1724.5421245421244
1650462720386.8079,279.1982000409082,1702.5641025641025
1650462720387.878,279.4268167860799,1671.7948717948716
1650462720387.989,279.4268167860799,1635.164835164835
1650462720394.0151,279.5412656154004,1593.4065934065934
1650462720423.099,279.5412656154004,1553.113553113553
1650462720427.564,279.6558082360172,1512.8205128205127
1650462720444.673,279.88517531269224,1473.260073260073
1650462720444.8801,280.0,1435.8974358974358
1650462720445.444,279.88517531269224,1405.128205128205
1650462720446.713,280.22993225210433,1378.7545787545787
1650462720446.866,280.11491894110407,1357.5091575091574
1650462720460.6272,280.34504004929147,1343.5897435897434
1650462720461.7861,280.34504004929147,1334.7985347985348
1650462720489.247,280.46024244914736,1328.2051282051282
1650462720490.375,280.57553956834533,1323.8095238095236
1650462720490.5032,280.8064184324213,1323.076923076923
1650462720501.806,280.6909315237508,1326.007326007326
1650462720515.53,280.8064184324213,1329.6703296703297
1650462720520.466,280.92200041160737,1334.7985347985348
1650462720520.721,281.15345005149334,1341.3919413919414
1650462720545.5679,281.0376775787523,1350.9157509157508
1650462720546.655,281.26931794766125,1361.904761904762
1650462720546.697,281.26931794766125,1374.3589743589744
1650462720568.003,281.3852813852814,1386.080586080586
1650462720569.244,281.50134048257377,1399.2673992673992
1650462720570.411,281.73374613003097,1410.989010989011
1650462720570.511,281.73374613003097,1420.5128205128203
1650462720606.824,281.85009291761304,1429.3040293040292
1650462720610.358,281.85009291761304,1436.6300366300366
1650462720624.239,282.0830750154991,1441.7582417582416
1650462720628.9412,282.1997105643994,1443.2234432234432
1650462720629.199,282.31644260599796,1443.956043956044
1650462720629.2979,282.1997105643994,1443.2234432234432
1650462720635.534,282.43327126008694,1439.5604395604394
1650462720641.853,282.550196646657,1433.6996336996335
1650462720642.0742,282.550196646657,1424.1758241758241
1650462720676.85,282.550196646657,1413.9194139194137
1650462720677.9448,282.7843380981976,1404.3956043956043
1650462720679.193,282.7843380981976,1392.6739926739926
1650462720679.436,283.0188679245283,1380.2197802197802
1650462720683.7039,282.9015544041451,1368.4981684981683
1650462720694.366,283.0188679245283,1354.5787545787546
1650462720728.005,283.13627878033606,1339.9267399267399
1650462720728.2778,283.37139298318453,1326.007326007326
1650462720729.3079,283.2537870927578,1317.216117216117
1650462720745.474,283.4890965732087,1309.1575091575091
1650462720746.729,283.4890965732087,1302.5641025641025
1650462720746.916,283.7247973394305,1298.9010989010987
1650462720748.008,283.606897984625,1298.9010989010987
1650462720756.768,283.7247973394305,1299.6336996336995
1650462720794.261,283.7247973394305,1301.8315018315018
1650462720794.5098,283.96089036821303,1301.8315018315018
1650462720795.552,283.96089036821303,1302.5641025641025
1650462720802.301,284.0790842872008,1304.7619047619046
1650462720803.4329,284.19737663960024,1306.9597069597069
1650462720803.71,284.3157675484274,1309.89010989011
1650462720808.0151,284.19737663960024,1312.8205128205127
1650462720821.747,284.3157675484274,1312.8205128205127
1650462720859.2961,284.5528455284553,1311.3553113553112
1650462720859.569,284.5528455284553,1311.3553113553112
1650462720860.973,284.5528455284553,1312.087912087912
1650462720861.742,284.79031921552263,1312.087912087912
1650462720861.8728,284.79031921552263,1311.3553113553112
1650462720863.053,285.02818960116934,1314.2857142857142
1650462720876.885,284.79031921552263,1317.9487179487178
1650462720878.126,285.1472738667224,1319.4139194139193
1650462720878.279,285.1472738667224,1320.14652014652
1650462720905.521,285.26645768025077,1323.076923076923
1650462720906.7668,285.26645768025077,1323.076923076923
1650462720925.456,285.26645768025077,1323.8095238095236
1650462720927.398,285.5051244509517,1323.8095238095236
1650462720927.603,285.5051244509517,1324.5421245421244
1650462720937.659,285.3857411666318,1324.5421245421244
1650462720975.489,285.5051244509517,1323.8095238095236
1650462720976.723,285.62460765850597,1321.6117216117216
1650462720976.872,285.7441909148001,1319.4139194139193
1650462720983.105,285.62460765850597,1318.6813186813185
1650462720984.146,285.86387434554973,1315.018315018315
1650462720987.1199,285.86387434554973,1309.89010989011
1650462720987.343,286.10354223433245,1301.8315018315018
1650462720999.369,285.86387434554973,1294.5054945054944
1650462721027.966,286.10354223433245,1287.9120879120878
1650462721028.134,286.10354223433245,1284.2490842490843
1650462721029.288,286.22352694485215,1284.2490842490843
1650462721045.537,286.10354223433245,1282.7838827838827
1650462721046.671,286.22352694485215,1279.8534798534797
1650462721047.943,286.22352694485215,1279.8534798534797
1650462721048.2048,286.4637985309549,1278.3882783882782
1650462721061.791,286.3436123348018,1281.3186813186812
1650462721086.936,286.4637985309549,1282.7838827838827
1650462721088.2969,286.5840856602981,1284.9816849816848
1650462721088.481,286.5840856602981,1284.2490842490843
1650462721101.849,286.4637985309549,1284.2490842490843
1650462721102.948,286.7044738500315,1283.5164835164835
1650462721111.8071,286.7044738500315,1282.7838827838827
1650462721111.929,286.94555392053815,1282.051282051282
1650462721138.14,286.7044738500315,1283.5164835164835
1650462721139.138,286.94555392053815,1281.3186813186812
1650462721139.26,286.94555392053815,1280.5860805860805
1650462721164.3628,287.06624605678235,1281.3186813186812
