Timestamp,GSR,PPG
1650546356780.2441,113.60869565217389,0.0
1650546356781.186,113.60869565217389,0.0
1650546356806.0852,113.60869565217389,0.0
1650546356807.28,113.60869565217389,0.0
1650546356834.757,113.60869565217389,0.0
1650546356834.937,113.60869565217389,0.0
1650546356860.091,113.60869565217389,0.0
1650546356874.9622,113.60869565217389,0.0
1650546356877.2432,118.31923890063426,0.0
1650546356877.393,118.24781165107154,0.0
1650546356878.605,118.24781165107154,0.0
1650546356879.932,118.24781165107154,0.0
1650546356881.0042,118.1764705882353,0.0
1650546356881.1272,118.24781165107154,0.0
1650546356906.187,118.24781165107154,0.0
1650546356931.246,118.24781165107154,0.0
1650546356931.5542,118.24781165107154,0.0
1650546356932.452,118.1764705882353,0.0
1650546356932.663,118.31923890063426,0.0
1650546356937.4011,118.24781165107154,0.0
1650546356937.6309,118.24781165107154,0.0
1650546356938.731,118.1764705882353,0.0
1650546356968.75,118.1764705882353,0.0
1650546356969.937,118.24781165107154,0.0
1650546356995.004,118.24781165107154,0.0
1650546356995.163,118.1764705882353,0.0
1650546356996.292,118.24781165107154,0.0
1650546357002.5762,118.24781165107154,0.0
1650546357003.652,118.1764705882353,0.0
1650546357003.784,118.1764705882353,0.0
1650546357038.859,118.1764705882353,0.0
1650546357040.063,118.24781165107154,0.0
1650546357054.921,118.1764705882353,0.0
1650546357055.082,118.1764705882353,0.0
1650546357056.272,118.1764705882353,0.0
1650546357057.5261,118.10521555622552,0.0
1650546357066.2,118.24781165107154,0.0
1650546357066.385,118.1764705882353,0.0
1650546357092.587,118.24781165107154,0.0
1650546357093.844,118.1764705882353,0.0
1650546357113.85,118.24781165107154,0.0
1650546357114.059,118.1764705882353,0.0
1650546357115.195,118.24781165107154,0.0
1650546357116.4219,118.1764705882353,0.0
1650546357141.278,118.1764705882353,0.0
1650546357141.478,118.1764705882353,0.0
1650546357142.589,118.1764705882353,0.0
1650546357168.9,118.1764705882353,0.0
1650546357170.1729,118.1764705882353,0.0
1650546357176.397,118.1764705882353,0.0
1650546357177.619,118.10521555622552,0.0
1650546357178.7761,118.1764705882353,0.0
1650546357178.8982,118.24781165107154,0.0
1650546357203.959,118.10521555622552,0.0
1650546357205.256,118.1764705882353,0.0
1650546357230.0872,118.1764705882353,0.0
1650546357230.282,118.10521555622552,0.0
1650546357231.416,118.10521555622552,0.0
1650546357232.6711,118.1764705882353,0.0
1650546357246.43,118.24781165107154,0.0
1650546357246.639,118.1764705882353,0.0
1650546357273.9812,118.1764705882353,0.0
1650546357275.2559,118.1764705882353,0.0
1650546357291.416,118.1764705882353,0.0
1650546357292.6382,118.24781165107154,0.0
1650546357292.827,118.10521555622552,0.0
1650546357294.03,118.1764705882353,0.0
1650546357325.332,118.1764705882353,0.0
1650546357326.466,118.24781165107154,0.0
1650546357326.784,118.10521555622552,0.0
1650546357347.707,118.10521555622552,0.0
1650546357347.872,118.1764705882353,0.0
1650546357347.951,118.1764705882353,0.0
1650546357349.019,118.1764705882353,0.0
1650546357362.877,118.1764705882353,0.0
1650546357393.989,118.1764705882353,0.0
1650546357394.192,118.24781165107154,0.0
1650546357395.419,118.1764705882353,0.0
1650546357411.583,118.1764705882353,0.0
1650546357412.72,118.1764705882353,0.0
1650546357413.923,118.1764705882353,0.0
1650546357414.0352,118.1764705882353,0.0
1650546357424.119,118.1764705882353,0.0
1650546357452.77,118.10521555622552,0.0
1650546357452.894,118.1764705882353,0.0
1650546357454.1162,118.03404639951793,0.0
1650546357474.1362,118.1764705882353,0.0
1650546357475.248,118.1764705882353,0.0
1650546357475.402,118.03404639951793,0.0
1650546357476.615,118.1764705882353,0.0
1650546357505.473,118.10521555622552,0.0
1650546357506.532,118.10521555622552,0.0
1650546357506.686,118.1764705882353,0.0
1650546357531.698,118.10521555622552,0.0
1650546357532.94,118.03404639951793,0.0
1650546357537.8179,118.1764705882353,0.0
1650546357539.033,118.1764705882353,0.0
1650546357539.185,118.10521555622552,0.0
1650546357565.66,118.10521555622552,0.0
1650546357566.8682,118.10521555622552,0.0
1650546357590.343,118.1764705882353,0.0
1650546357590.496,118.10521555622552,0.0
1650546357591.666,118.10521555622552,0.0
1650546357592.9119,118.10521555622552,0.0
1650546357600.323,118.10521555622552,0.0
1650546357600.474,118.03404639951793,0.0
1650546357626.913,118.10521555622552,0.0
1650546357628.181,118.1764705882353,0.0
1650546357651.636,118.10521555622552,0.0
1650546357651.763,118.10521555622552,0.0
1650546357653.001,118.03404639951793,0.0
1650546357654.116,118.10521555622552,0.0
1650546357662.969,118.10521555622552,0.0
1650546357663.1492,118.03404639951793,0.0
1650546357688.056,118.03404639951793,0.0
1650546357689.163,118.03404639951793,0.0
1650546357689.316,118.10521555622552,0.0
1650546357711.853,118.03404639951793,0.0
1650546357713.0808,118.03404639951793,0.0
1650546357714.221,118.03404639951793,0.0
1650546357741.7551,118.03404639951793,0.0
1650546357741.996,117.96296296296298,0.0
1650546357743.063,117.96296296296298,0.0
1650546357769.293,118.03404639951793,0.0
1650546357769.4941,118.03404639951793,0.0
1650546357770.7478,117.89196509178454,0.0
1650546357775.716,117.89196509178454,0.0
1650546357776.715,117.96296296296298,0.0
1650546357804.2778,117.96296296296298,0.0
1650546357804.539,117.89196509178454,0.0
1650546357805.719,117.89196509178454,0.0
1650546357830.5781,117.89196509178454,0.0
1650546357830.775,117.89196509178454,0.0
1650546357830.892,117.82105263157895,0.0
1650546357831.885,117.82105263157895,0.0
1650546357836.7861,117.82105263157895,0.0
1650546357865.584,117.89196509178454,0.0
1650546357865.781,117.67948332832681,0.0
1650546357866.91,117.75022542831381,0.0
1650546357891.957,117.82105263157895,0.0
1650546357893.097,117.75022542831381,0.0
1650546357893.2878,117.67948332832681,0.0
1650546357894.4448,117.75022542831381,0.0
1650546357903.2249,117.67948332832681,0.0
1650546357930.858,117.60882617832482,0.0
1650546357932.0322,117.60882617832482,0.0
1650546357954.5232,117.67948332832681,0.0
1650546357955.61,117.67948332832681,0.0
1650546357955.737,117.75022542831381,0.0
1650546357956.9622,117.53825382538253,0.0
1650546357958.2688,117.60882617832482,0.0
1650546357985.699,117.60882617832482,0.0
1650546357985.921,117.46776611694152,0.0
1650546357986.992,117.53825382538253,0.0
1650546358012.187,117.60882617832482,0.0
1650546358013.1782,117.60882617832482,0.0
1650546358013.35,117.53825382538253,0.0
1650546358014.658,117.53825382538253,0.0
1650546358019.6682,117.53825382538253,0.0
1650546358051.964,117.53825382538253,0.0
1650546358053.185,117.53825382538253,0.0
1650546358053.334,117.46776611694152,0.0
1650546358054.554,117.46776611694152,0.0
1650546358080.919,117.53825382538253,0.0
1650546358081.951,117.46776611694152,0.0
1650546358082.094,117.46776611694152,0.0
1650546358083.3262,117.46776611694152,0.0
1650546358109.825,117.46776611694152,0.0
1650546358130.761,117.46776611694152,0.0
1650546358130.949,117.3973629008091,0.0
1650546358132.1052,117.3973629008091,0.0
1650546358133.352,117.3973629008091,0.0
1650546358147.1492,117.32704402515722,0.0
1650546358147.428,117.32704402515722,0.0
1650546358172.16,117.32704402515722,0.0
1650546358173.301,117.3973629008091,0.0
1650546358198.4812,117.3973629008091,0.0
1650546358198.669,117.32704402515722,0.0
1650546358199.837,117.3973629008091,0.0
1650546358201.3062,117.32704402515722,0.0
1650546358202.08,117.32704402515722,0.7326007326007326
1650546358202.2769,117.25680933852139,0.0
1650546358203.4211,117.25680933852139,0.0
1650546358248.525,117.25680933852139,0.0
1650546358248.795,117.32704402515722,0.0
1650546358249.701,117.18665868979957,0.0
1650546358251.138,117.25680933852139,0.0
1650546358252.1602,117.18665868979957,0.0
1650546358252.374,117.25680933852139,0.0
1650546358253.423,117.18665868979957,0.0
1650546358267.2751,117.18665868979957,0.0
1650546358292.104,117.25680933852139,0.0
1650546358292.259,117.11659192825111,0.0
1650546358293.545,117.18665868979957,0.0
1650546358312.562,117.11659192825111,0.0
1650546358313.3398,117.18665868979957,0.0
1650546358313.559,117.18665868979957,0.0
1650546358314.8,117.11659192825111,0.0
1650546358344.823,117.11659192825111,0.0
1650546358345.915,117.18665868979957,0.0
1650546358373.429,117.11659192825111,0.0
1650546358373.6301,117.04660890349567,0.7326007326007326
1650546358374.779,117.04660890349567,0.0
1650546358376.101,117.04660890349567,0.0
1650546358377.141,117.04660890349567,0.0
1650546358377.2832,116.97670946551209,0.0
1650546358407.608,117.04660890349567,0.0
1650546358408.562,117.04660890349567,0.0
1650546358434.683,116.97670946551209,0.0
1650546358434.854,116.97670946551209,0.0
1650546358436.1218,116.97670946551209,0.0
1650546358437.29,117.04660890349567,0.0
1650546358444.8481,116.97670946551209,0.0
1650546358445.026,116.90689346463742,0.0
1650546358471.155,116.90689346463742,0.0
1650546358472.186,116.97670946551209,0.0
1650546358472.303,116.97670946551209,0.0
1650546358492.368,116.90689346463742,0.0
1650546358493.5369,116.90689346463742,0.0
1650546358493.72,116.90689346463742,0.0
1650546358493.8582,116.90689346463742,0.0
1650546358507.353,116.83716075156576,0.0
1650546358536.223,116.83716075156576,0.0
1650546358537.239,116.83716075156576,0.0
1650546358548.53,116.83716075156576,0.0
1650546358548.675,116.83716075156576,0.0
1650546358549.876,116.83716075156576,0.0
1650546358558.564,116.76751117734723,0.0
1650546358558.7659,116.83716075156576,0.0
1650546358589.992,116.76751117734723,0.0
1650546358591.347,116.76751117734723,0.0
1650546358618.573,116.76751117734723,0.0
1650546358619.853,116.76751117734723,0.0
1650546358620.062,116.69794459338695,0.0
1650546358622.483,116.76751117734723,0.0
1650546358623.642,116.69794459338695,0.0
1650546358623.864,116.69794459338695,0.0
1650546358649.969,116.62846085144388,0.0
1650546358651.282,116.62846085144388,0.0
1650546358673.637,116.69794459338695,0.0
1650546358674.8408,116.62846085144388,0.0
1650546358674.9858,116.48974130240856,0.0
1650546358676.2969,116.55905980362986,0.0
1650546358684.987,116.62846085144388,0.0
1650546358709.917,116.62846085144388,0.0
1650546358710.094,116.48974130240856,0.0
1650546358711.312,116.55905980362986,0.0
1650546358732.648,116.48974130240856,0.0
1650546358734.9219,116.48974130240856,0.0
1650546358735.086,116.42050520059435,0.0
1650546358736.374,116.48974130240856,0.0
1650546358765.045,116.48974130240856,0.0
1650546358766.155,116.35135135135134,0.0
1650546358766.305,116.42050520059435,0.0
1650546358793.915,116.42050520059435,0.0
1650546358795.054,116.42050520059435,0.0
1650546358797.483,116.42050520059435,0.0
1650546358797.6538,116.35135135135134,0.0
1650546358798.792,116.42050520059435,0.0
1650546358825.085,116.35135135135134,0.0
1650546358826.261,116.28227960819234,0.0
1650546358826.4849,116.28227960819234,0.0
1650546358852.684,116.35135135135134,0.0
1650546358853.841,116.35135135135134,0.0
1650546358856.167,116.35135135135134,0.0
1650546358856.2852,116.21328982497775,0.0
1650546358862.684,116.28227960819234,0.0
1650546358888.8591,116.21328982497775,0.0
1650546358890.063,116.28227960819234,0.0
1650546358890.2258,116.21328982497775,0.0
1650546358915.148,116.21328982497775,0.0
1650546358916.443,116.21328982497775,0.0
1650546358921.234,116.21328982497775,0.0
1650546358921.3618,116.14438185591462,0.0
1650546358922.622,116.14438185591462,0.0
1650546358961.318,116.07555555555555,0.0
1650546358961.511,116.07555555555555,0.0
1650546358962.625,116.07555555555555,0.0
1650546358968.888,116.14438185591462,0.0
1650546358970.0178,116.07555555555555,0.0
1650546358971.263,116.14438185591462,0.0
1650546358971.3682,116.00681077879774,0.0
1650546358985.2031,116.00681077879774,0.0
1650546359011.369,116.00681077879774,0.0
1650546359011.532,116.00681077879774,0.0
1650546359012.7349,115.93814738088192,0.0
1650546359036.551,116.00681077879774,0.0
1650546359037.559,115.93814738088192,0.0
1650546359038.802,116.00681077879774,0.0
1650546359038.9321,115.8695652173913,0.0
1650546359047.837,115.8695652173913,0.0
1650546359072.645,115.8695652173913,0.0
1650546359072.916,115.8695652173913,0.0
1650546359073.9492,115.80106414425066,0.0
1650546359091.5989,115.80106414425066,0.0
1650546359092.566,115.80106414425066,0.0
1650546359101.4,115.80106414425066,0.0
1650546359101.5972,115.73264401772525,0.0
1650546359126.624,115.80106414425066,0.0
1650546359127.736,115.80106414425066,0.0
1650546359150.196,115.73264401772525,0.0
1650546359150.387,115.66430469441984,0.0
1650546359151.588,115.66430469441984,0.0
1650546359152.649,115.73264401772525,0.0
1650546359166.436,115.66430469441984,0.0
1650546359166.614,115.66430469441984,0.0
1650546359195.303,115.66430469441984,0.0
1650546359217.249,115.66430469441984,0.0
1650546359217.628,115.66430469441984,0.0
1650546359217.906,115.59604603127767,0.0
1650546359218.0679,115.59604603127767,0.0
1650546359218.923,115.59604603127767,0.0
1650546359225.1611,115.66430469441984,0.0
1650546359225.292,115.52786788557947,0.0
1650546359256.661,115.52786788557947,0.0
1650546359257.694,115.52786788557947,0.0
1650546359257.825,115.52786788557947,0.0
1650546359271.659,115.45977011494253,0.0
1650546359272.816,115.45977011494253,0.0
1650546359273.941,115.45977011494253,0.0
1650546359287.74,115.52786788557947,0.0
1650546359287.969,115.45977011494253,0.0
1650546359312.864,115.45977011494253,0.0
1650546359313.958,115.45977011494253,0.0
1650546359314.084,115.45977011494253,0.0
1650546359335.403,115.32381513099794,0.0
1650546359336.685,115.39175257731958,0.0
1650546359337.717,115.32381513099794,0.0
1650546359366.598,115.39175257731958,0.0
1650546359366.8599,115.2559576345984,0.0
1650546359367.867,115.2559576345984,0.0
1650546359386.7039,115.2559576345984,0.0
1650546359387.7412,115.2559576345984,0.0
1650546359387.8428,115.18817994707439,0.0
1650546359389.084,115.2559576345984,0.0
1650546359402.8252,115.18817994707439,0.0
1650546359427.845,115.18817994707439,0.0
1650546359428.083,115.12048192771084,0.0
1650546359429.1638,115.12048192771084,0.0
1650546359455.359,115.12048192771084,0.0
1650546359455.594,115.12048192771084,0.0
1650546359456.657,114.98532433225712,0.0
1650546359457.9019,115.05286343612335,0.0
1650546359466.6082,114.98532433225712,0.0
1650546359466.792,114.91786447638604,0.0
1650546359499.222,114.91786447638604,0.0
1650546359500.436,114.98532433225712,0.0
1650546359510.447,114.91786447638604,0.0
1650546359510.663,114.91786447638604,0.0
1650546359511.78,114.8504837291117,0.0
1650546359512.998,114.8504837291117,0.0
1650546359526.9521,114.71595900439239,0.0
1650546359554.152,114.78318195136244,0.0
1650546359554.3162,114.71595900439239,0.0
1650546359555.439,114.71595900439239,0.0
1650546359577.969,114.71595900439239,0.0
1650546359578.1409,114.71595900439239,0.0
1650546359578.209,114.58174904942966,0.0
1650546359579.267,114.64881474978051,0.0
1650546359607.925,114.58174904942966,0.0
1650546359608.109,114.58174904942966,7.326007326007326
1650546359609.2378,114.51476176556562,135.53113553113553
1650546359635.595,114.4478527607362,314.2857142857143
1650546359636.647,114.4478527607362,507.6923076923077
1650546359636.801,114.4478527607362,694.5054945054944
1650546359638.023,114.38102189781021,863.7362637362637
1650546359639.2568,114.38102189781021,1010.9890109890109
1650546359664.365,114.31426903997665,1134.7985347985348
1650546359695.5781,114.38102189781021,1232.967032967033
1650546359695.781,114.31426903997665,1309.89010989011
1650546359696.9932,114.31426903997665,1370.6959706959706
1650546359698.146,114.24759405074366,1413.9194139194137
1650546359699.1912,114.31426903997665,1441.7582417582416
1650546359699.3142,114.18099679393762,1457.8754578754579
1650546359704.293,114.24759405074366,1464.4688644688645
1650546359729.335,114.18099679393762,1463.7362637362637
1650546359729.5981,114.18099679393762,1457.142857142857
1650546359730.671,114.11447713370231,1449.084249084249
1650546359750.614,114.18099679393762,1438.095238095238
1650546359751.7,114.18099679393762,1424.9084249084249
1650546359751.826,114.24759405074366,1410.989010989011
1650546359753.0552,114.11447713370231,1399.2673992673992
1650546359766.957,114.11447713370231,1387.5457875457876
1650546359800.538,114.18099679393762,1378.021978021978
1650546359800.729,114.11447713370231,1368.4981684981683
1650546359801.836,114.04803493449782,1361.1721611721612
1650546359810.738,114.11447713370231,1353.8461538461538
1650546359811.863,114.11447713370231,1348.7179487179487
1650546359812.18,114.18099679393762,1344.3223443223442
1650546359820.655,114.04803493449782,1345.054945054945
1650546359845.74,114.11447713370231,1345.7875457875457
1650546359846.859,114.04803493449782,1347.2527472527472
1650546359847.173,114.04803493449782,1350.9157509157508
1650546359873.1611,114.04803493449782,1356.7765567765566
1650546359874.4658,114.04803493449782,1359.7069597069597
1650546359878.182,114.04803493449782,1361.1721611721612
1650546359878.349,114.04803493449782,1362.6373626373625
1650546359879.4392,113.9816700610998,1364.102564102564
1650546359906.923,113.9816700610998,1362.6373626373625
1650546359908.005,113.91538237859844,1361.1721611721612
1650546359929.741,114.04803493449782,1356.0439560439559
1650546359929.9778,113.91538237859844,1353.113553113553
1650546359930.768,113.91538237859844,1349.4505494505493
1650546359931.99,113.91538237859844,1345.054945054945
1650546359945.593,113.84917175239757,1339.194139194139
1650546359945.759,113.84917175239757,1334.7985347985348
1650546359970.771,113.84917175239757,1327.4725274725274
1650546359972.002,113.84917175239757,1317.9487179487178
1650546359996.8591,113.84917175239757,1306.9597069597069
1650546359997.046,113.78303804821377,1295.2380952380952
1650546359998.29,113.78303804821377,1284.9816849816848
1650546359999.476,113.84917175239757,1273.9926739926739
1650546360008.1638,113.84917175239757,1265.9340659340658
1650546360008.364,113.78303804821377,1260.07326007326
1650546360035.753,113.78303804821377,1257.142857142857
1650546360036.967,113.78303804821377,1254.212454212454
1650546360053.115,113.78303804821377,1252.014652014652
1650546360053.294,113.71698113207547,1252.014652014652
1650546360054.481,113.78303804821377,1252.014652014652
1650546360055.717,113.78303804821377,1250.5494505494505
1650546360083.2688,113.78303804821377,1250.5494505494505
1650546360083.543,113.71698113207547,1249.084249084249
1650546360085.855,113.78303804821377,1247.6190476190475
1650546360112.098,113.71698113207547,1250.5494505494505
1650546360117.085,113.71698113207547,1254.212454212454
1650546360117.342,113.65100087032202,1260.07326007326
1650546360118.358,113.71698113207547,1265.2014652014652
1650546360119.5159,113.71698113207547,1268.8644688644688
1650546360145.712,113.58509712960279,1270.3296703296703
1650546360145.906,113.65100087032202,1271.7948717948716
1650546360147.205,113.71698113207547,1271.7948717948716
1650546360174.712,113.71698113207547,1270.3296703296703
1650546360180.777,113.71698113207547,1268.131868131868
1650546360181.0032,113.65100087032202,1264.4688644688645
1650546360182.038,113.71698113207547,1261.5384615384614
1650546360183.326,113.71698113207547,1257.142857142857
1650546360211.0232,113.58509712960279,1254.9450549450548
1650546360211.237,113.65100087032202,1249.084249084249
1650546360212.117,113.65100087032202,1246.8864468864467
1650546360231.983,113.71698113207547,1246.8864468864467
1650546360233.207,113.71698113207547,1252.014652014652
1650546360233.352,113.58509712960279,1265.9340659340658
1650546360234.6,113.65100087032202,1290.10989010989
1650546360248.3572,113.65100087032202,1323.8095238095236
1650546360273.3408,113.65100087032202,1368.4981684981683
1650546360273.584,113.65100087032202,1419.7802197802198
1650546360274.721,113.65100087032202,1473.260073260073
1650546360295.873,113.65100087032202,1528.2051282051282
1650546360298.209,113.65100087032202,1583.150183150183
1650546360298.353,113.51926977687627,1635.8974358974358
1650546360303.376,113.58509712960279,1682.051282051282
1650546360328.279,113.58509712960279,1719.4139194139193
1650546360328.469,113.65100087032202,1746.5201465201465
1650546360329.623,113.58509712960279,1762.6373626373625
1650546360352.146,113.58509712960279,1765.5677655677655
1650546360353.251,113.65100087032202,1756.0439560439559
1650546360353.394,113.58509712960279,1737.7289377289376
1650546360354.623,113.58509712960279,1712.087912087912
1650546360363.392,113.65100087032202,1679.8534798534797
1650546360388.303,113.51926977687627,1643.956043956044
1650546360388.4722,113.65100087032202,1605.8608058608058
1650546360389.633,113.51926977687627,1569.230769230769
1650546360418.4302,113.65100087032202,1531.135531135531
1650546360419.573,113.58509712960279,1498.168498168498
1650546360423.285,113.65100087032202,1468.8644688644688
1650546360423.445,113.51926977687627,1445.4212454212454
1650546360424.6572,113.58509712960279,1424.1758241758241
1650546360454.686,113.58509712960279,1405.8608058608058
1650546360455.7969,113.45351867940921,1392.6739926739926
1650546360455.956,113.58509712960279,1381.6849816849815
1650546360474.8079,113.65100087032202,1373.6263736263736
1650546360475.902,113.65100087032202,1369.230769230769
1650546360476.158,113.58509712960279,1364.102564102564
1650546360477.214,113.58509712960279,1358.974358974359
1650546360502.2039,113.65100087032202,1354.5787545787546
1650546360503.319,113.58509712960279,1351.6483516483515
1650546360503.4639,113.65100087032202,1347.2527472527472
1650546360528.877,113.58509712960279,1345.054945054945
1650546360529.912,113.58509712960279,1343.5897435897434
1650546360542.1309,113.58509712960279,1345.054945054945
1650546360543.3381,113.65100087032202,1347.2527472527472
1650546360543.497,113.58509712960279,1350.18315018315
1650546360568.501,113.58509712960279,1356.7765567765566
1650546360569.598,113.58509712960279,1367.7655677655678
1650546360569.737,113.58509712960279,1382.4175824175823
1650546360593.557,113.58509712960279,1398.5347985347985
1650546360594.785,113.58509712960279,1415.3846153846152
1650546360596.024,113.65100087032202,1430.7692307692307
1650546360596.256,113.65100087032202,1443.956043956044
1650546360604.778,113.58509712960279,1449.8168498168498
1650546360633.6628,113.58509712960279,1449.084249084249
1650546360634.742,113.58509712960279,1443.2234432234432
1650546360635.293,113.65100087032202,1432.9670329670328
1650546360653.5361,113.58509712960279,1422.7106227106226
1650546360654.74,113.58509712960279,1409.5238095238094
1650546360655.854,113.65100087032202,1397.8021978021977
1650546360680.9512,113.65100087032202,1386.8131868131868
1650546360681.144,113.58509712960279,1375.091575091575
1650546360682.2642,113.58509712960279,1362.6373626373625
1650546360708.447,113.65100087032202,1349.4505494505493
1650546360708.633,113.65100087032202,1336.263736263736
1650546360709.792,113.58509712960279,1326.7399267399267
1650546360722.291,113.58509712960279,1317.9487179487178
1650546360724.687,113.65100087032202,1311.3553113553112
1650546360725.973,113.65100087032202,1304.7619047619046
1650546360726.27,113.58509712960279,1298.9010989010987
1650546360761.094,113.58509712960279,1293.7728937728937
1650546360762.175,113.65100087032202,1289.3772893772893
1650546360762.331,113.65100087032202,1284.2490842490843
1650546360769.836,113.58509712960279,1279.120879120879
1650546360771.052,113.58509712960279,1276.1904761904761
1650546360781.157,113.51926977687627,1276.1904761904761
1650546360805.979,113.65100087032202,1277.6556776556777
1650546360806.162,113.58509712960279,1279.8534798534797
1650546360807.3708,113.58509712960279,1279.8534798534797
1650546360832.349,113.65100087032202,1280.5860805860805
1650546360833.486,113.58509712960279,1280.5860805860805
1650546360833.632,113.51926977687627,1280.5860805860805
1650546360834.832,113.65100087032202,1279.8534798534797
1650546360843.625,113.58509712960279,1279.8534798534797
1650546360872.241,113.65100087032202,1279.8534798534797
1650546360872.364,113.58509712960279,1280.5860805860805
1650546360873.57,113.58509712960279,1281.3186813186812
1650546360889.983,113.65100087032202,1282.051282051282
1650546360891.075,113.65100087032202,1282.051282051282
1650546360891.2302,113.58509712960279,1283.5164835164835
1650546360899.8662,113.58509712960279,1283.5164835164835
1650546360906.115,113.65100087032202,1285.7142857142856
1650546360936.0508,113.65100087032202,1285.7142857142856
1650546360936.255,113.58509712960279,1283.5164835164835
1650546360937.391,113.65100087032202,1280.5860805860805
1650546360954.968,113.65100087032202,1278.3882783882782
1650546360956.0498,113.71698113207547,1277.6556776556777
1650546360956.219,113.65100087032202,1276.923076923077
1650546360957.35,113.65100087032202,1276.923076923077
1650546360986.068,113.65100087032202,1276.923076923077
1650546360986.267,113.58509712960279,1279.8534798534797
1650546360987.407,113.65100087032202,1278.3882783882782
1650546361013.675,113.65100087032202,1277.6556776556777
1650546361014.7952,113.65100087032202,1274.7252747252746
1650546361014.945,113.51926977687627,1273.9926739926739
1650546361016.157,113.65100087032202,1273.9926739926739
1650546361017.549,113.65100087032202,1277.6556776556777
1650546361043.668,113.71698113207547,1279.120879120879
1650546361043.8982,113.65100087032202,1282.7838827838827
1650546361044.944,113.65100087032202,1286.4468864468863
1650546361071.249,113.65100087032202,1290.10989010989
1650546361079.877,113.71698113207547,1293.7728937728937
1650546361080.019,113.71698113207547,1295.970695970696
1650546361081.196,113.65100087032202,1295.970695970696
1650546361082.438,113.71698113207547,1295.2380952380952
1650546361108.642,113.65100087032202,1292.3076923076922
1650546361109.864,113.58509712960279,1287.179487179487
1650546361110.08,113.65100087032202,1278.3882783882782
1650546361137.722,113.65100087032202,1270.3296703296703
1650546361138.66,113.71698113207547,1264.4688644688645
1650546361138.9312,113.71698113207547,1258.6080586080586
1650546361143.723,113.65100087032202,1255.6776556776556
1650546361144.959,113.65100087032202,1251.2820512820513
1650546361171.088,113.65100087032202,1249.084249084249
1650546361172.322,113.51926977687627,1246.8864468864467
1650546361172.421,113.58509712960279,1245.4212454212454
1650546361192.71,113.65100087032202,1246.153846153846
1650546361193.635,113.65100087032202,1245.4212454212454
1650546361193.831,113.71698113207547,1243.2234432234432
1650546361195.0159,113.58509712960279,1241.0256410256409
1650546361208.74,113.65100087032202,1239.5604395604396
1650546361236.105,113.58509712960279,1244.6886446886447
1650546361237.363,113.65100087032202,1255.6776556776556
1650546361237.645,113.58509712960279,1276.923076923077
1650546361253.818,113.58509712960279,1306.9597069597069
1650546361255.012,113.58509712960279,1346.5201465201465
1650546361256.155,113.51926977687627,1396.3369963369962
1650546361256.336,113.58509712960279,1447.6190476190475
1650546361282.5242,113.58509712960279,1502.5641025641025
1650546361283.63,113.58509712960279,1556.7765567765566
1650546361284.8599,113.58509712960279,1612.4542124542124
1650546361285.004,113.58509712960279,1663.003663003663
1650546361315.031,113.58509712960279,1702.5641025641025
1650546361316.247,113.58509712960279,1728.937728937729
1650546361317.373,113.51926977687627,1743.5897435897434
1650546361317.508,113.51926977687627,1746.5201465201465
1650546361345.0251,113.51926977687627,1736.9963369963368
1650546361346.144,113.51926977687627,1715.7509157509157
1650546361372.4338,113.58509712960279,1685.7142857142856
1650546361372.611,113.51926977687627,1649.8168498168498
1650546361373.78,113.51926977687627,1608.7912087912086
1650546361375.03,113.51926977687627,1568.4981684981683
1650546361381.1792,113.51926977687627,1529.6703296703295
1650546361381.341,113.38784370477569,1496.7032967032967
1650546361407.6829,113.51926977687627,1465.9340659340658
1650546361408.7888,113.45351867940921,1437.3626373626373
1650546361431.211,113.51926977687627,1412.4542124542124
1650546361431.4119,113.38784370477569,1392.6739926739926
1650546361432.6438,113.45351867940921,1374.3589743589744
1650546361433.929,113.45351867940921,1361.1721611721612
1650546361447.449,113.45351867940921,1352.3809523809523
1650546361447.5679,113.38784370477569,1347.985347985348
1650546361478.834,113.38784370477569,1345.7875457875457
1650546361479.9531,113.45351867940921,1345.054945054945
1650546361484.952,113.45351867940921,1342.8571428571427
1650546361485.0571,113.38784370477569,1339.9267399267399
1650546361486.31,113.38784370477569,1335.5311355311355
1650546361497.4949,113.38784370477569,1330.4029304029302
1650546361497.67,113.38784370477569,1326.007326007326
1650546361527.594,113.38784370477569,1326.7399267399267
1650546361528.923,113.32224472085623,1331.135531135531
1650546361555.154,113.38784370477569,1333.3333333333333
1650546361556.216,113.38784370477569,1338.4615384615383
1650546361556.332,113.32224472085623,1343.5897435897434
1650546361557.632,113.38784370477569,1349.4505494505493
1650546361558.769,113.32224472085623,1357.5091575091574
1650546361558.995,113.38784370477569,1365.5677655677655
1650546361585.16,113.32224472085623,1372.8937728937728
1650546361586.405,113.32224472085623,1378.7545787545787
1650546361613.832,113.25672159583695,1383.150183150183
1650546361615.083,113.32224472085623,1387.5457875457876
1650546361615.327,113.25672159583695,1392.6739926739926
1650546361621.523,113.25672159583695,1393.4065934065934
1650546361622.693,113.25672159583695,1391.9413919413919
1650546361648.8372,113.25672159583695,1388.278388278388
1650546361649.061,113.19127419820862,1383.8827838827838
1650546361650.1802,113.25672159583695,1378.7545787545787
1650546361676.494,113.25672159583695,1372.161172161172
1650546361678.931,113.25672159583695,1364.8351648351647
1650546361679.27,113.12590239676581,1356.7765567765566
1650546361680.222,113.25672159583695,1347.985347985348
1650546361683.1729,113.25672159583695,1342.1245421245421
1650546361708.8152,113.19127419820862,1337.7289377289376
1650546361709.089,113.12590239676581,1334.065934065934
1650546361710.18,113.19127419820862,1330.4029304029302
1650546361733.868,113.19127419820862,1326.007326007326
1650546361735.059,113.19127419820862,1320.8791208791208
1650546361735.2031,113.19127419820862,1317.9487179487178
1650546361736.412,113.12590239676581,1316.4835164835165
1650546361763.86,113.12590239676581,1317.9487179487178
1650546361764.056,113.12590239676581,1319.4139194139193
1650546361765.209,113.12590239676581,1320.8791208791208
1650546361792.68,113.12590239676581,1322.3443223443223
1650546361793.832,113.12590239676581,1323.076923076923
1650546361800.198,113.12590239676581,1323.8095238095236
1650546361800.482,113.06060606060606,1324.5421245421244
1650546361801.508,113.12590239676581,1323.076923076923
1650546361827.739,112.99538505912894,1323.8095238095236
1650546361828.874,112.93023926203517,1325.2747252747251
1650546361829.091,112.99538505912894,1328.2051282051282
1650546361850.227,113.06060606060606,1329.6703296703297
1650546361851.4321,113.06060606060606,1331.135531135531
1650546361852.598,113.06060606060606,1331.8681318681317
1650546361852.7751,112.99538505912894,1332.6007326007325
1650546361866.534,112.99538505912894,1333.3333333333333
1650546361892.801,112.99538505912894,1333.3333333333333
1650546361892.999,113.06060606060606,1332.6007326007325
1650546361893.958,112.99538505912894,1331.8681318681317
1650546361912.781,112.99538505912894,1329.6703296703297
1650546361913.828,113.06060606060606,1326.7399267399267
1650546361915.166,112.93023926203517,1325.2747252747251
1650546361915.345,112.99538505912894,1323.076923076923
1650546361924.032,112.99538505912894,1320.8791208791208
1650546361957.7898,112.93023926203517,1320.8791208791208
1650546361958.052,112.99538505912894,1320.8791208791208
1650546361959.003,112.99538505912894,1320.14652014652
1650546361975.312,112.99538505912894,1318.6813186813185
1650546361976.928,112.93023926203517,1316.4835164835165
1650546361977.573,112.99538505912894,1311.3553113553112
1650546361977.66,112.93023926203517,1306.227106227106
1650546361986.5361,112.93023926203517,1298.9010989010987
1650546362011.468,112.86516853932585,1291.5750915750914
1650546362011.6528,112.93023926203517,1284.9816849816848
1650546362012.849,112.86516853932585,1279.120879120879
1650546362038.884,112.93023926203517,1276.923076923077
1650546362039.0142,112.86516853932585,1276.1904761904761
1650546362040.135,112.93023926203517,1279.120879120879
1650546362040.3472,112.80017276130148,1282.051282051282
1650546362052.726,112.86516853932585,1284.2490842490843
1650546362073.968,112.80017276130148,1284.9816849816848
1650546362074.1501,112.86516853932585,1284.2490842490843
1650546362075.2412,112.86516853932585,1282.7838827838827
1650546362096.541,112.80017276130148,1281.3186813186812
1650546362097.644,112.73525179856115,1281.3186813186812
1650546362098.8792,112.80017276130148,1279.8534798534797
1650546362098.9958,112.80017276130148,1277.6556776556777
1650546362130.346,112.80017276130148,1274.7252747252746
1650546362131.5989,112.80017276130148,1273.9926739926739
1650546362156.518,112.80017276130148,1271.062271062271
1650546362156.7449,112.80017276130148,1268.8644688644688
1650546362156.785,112.73525179856115,1265.9340659340658
1650546362157.862,112.80017276130148,1263.7362637362637
1650546362165.2278,112.80017276130148,1262.2710622710622
1650546362165.3909,112.67040552200173,1261.5384615384614
1650546362190.294,112.73525179856115,1261.5384615384614
1650546362191.573,112.67040552200173,1261.5384615384614
1650546362218.96,112.73525179856115,1262.2710622710622
1650546362219.138,112.73525179856115,1263.003663003663
1650546362220.297,112.67040552200173,1263.7362637362637
1650546362221.431,112.73525179856115,1265.2014652014652
1650546362222.675,112.67040552200173,1269.5970695970695
1650546362222.83,112.67040552200173,1278.3882783882782
1650546362250.425,112.67040552200173,1293.7728937728937
1650546362251.6228,112.67040552200173,1313.5531135531135
1650546362273.936,112.60563380281691,1343.5897435897434
1650546362274.039,112.60563380281691,1380.2197802197802
1650546362287.991,112.54093651249642,1422.7106227106226
1650546362288.962,112.60563380281691,1474.7252747252746
1650546362289.112,112.60563380281691,1534.7985347985348
1650546362320.641,112.60563380281691,1598.5347985347985
1650546362320.8052,112.54093651249642,1660.07326007326
1650546362333.991,112.54093651249642,1716.4835164835163
1650546362334.147,112.54093651249642,1761.9047619047617
1650546362335.312,112.54093651249642,1796.3369963369962
1650546362336.56,112.54093651249642,1818.3150183150183
1650546362341.5989,112.54093651249642,1825.6410256410254
1650546362369.114,112.54093651249642,1818.3150183150183
1650546362369.2788,112.47631352282517,1799.9999999999998
1650546362369.313,112.47631352282517,1771.4285714285713
1650546362394.058,112.47631352282517,1736.263736263736
1650546362394.174,112.54093651249642,1696.7032967032967
1650546362394.209,112.41176470588236,1654.9450549450548
1650546362395.318,112.41176470588236,1610.989010989011
1650546362404.257,112.41176470588236,1569.9633699633698
1650546362430.24,112.28288907996561,1531.135531135531
1650546362430.388,112.34728993404073,1495.970695970696
1650546362435.081,112.41176470588236,1465.201465201465
1650546362454.0378,112.41176470588236,1441.7582417582416
1650546362454.195,112.41176470588236,1421.245421245421
1650546362455.353,112.34728993404073,1404.3956043956043
1650546362456.5981,112.34728993404073,1391.2087912087911
1650546362487.885,112.34728993404073,1381.6849816849815
1650546362488.966,112.28288907996561,1374.3589743589744
1650546362489.124,112.28288907996561,1367.7655677655678
1650546362514.262,112.34728993404073,1361.1721611721612
1650546362516.49,112.28288907996561,1357.5091575091574
1650546362521.2031,112.21856201661416,1353.8461538461538
1650546362521.528,112.28288907996561,1350.9157509157508
1650546362521.574,112.28288907996561,1350.9157509157508
1650546362550.812,112.28288907996561,1353.113553113553
1650546362551.6702,112.15430861723448,1357.5091575091574
1650546362574.2559,112.21856201661416,1361.904761904762
1650546362575.381,112.21856201661416,1369.9633699633698
1650546362576.545,112.21856201661416,1380.952380952381
1650546362576.722,112.15430861723448,1393.4065934065934
1650546362578.87,112.21856201661416,1405.8608058608058
1650546362579.094,112.21856201661416,1417.5824175824175
1650546362609.572,112.15430861723448,1429.3040293040292
1650546362609.7788,112.15430861723448,1438.095238095238
1650546362609.869,112.15430861723448,1446.153846153846
1650546362635.4421,112.15430861723448,1452.014652014652
1650546362636.6729,112.15430861723448,1455.6776556776556
1650546362637.936,112.15430861723448,1455.6776556776556
1650546362638.144,112.09012875536482,1452.014652014652
1650546362644.2349,112.09012875536482,1445.4212454212454
1650546362675.589,112.09012875536482,1435.8974358974358
1650546362693.247,112.02602230483272,1426.3736263736262
1650546362693.396,112.09012875536482,1416.117216117216
1650546362694.426,112.09012875536482,1404.3956043956043
1650546362695.304,112.09012875536482,1393.4065934065934
1650546362695.4229,112.09012875536482,1381.6849816849815
1650546362696.7249,112.02602230483272,1372.161172161172
1650546362725.485,112.09012875536482,1360.4395604395604
1650546362727.3828,112.02602230483272,1349.4505494505493
1650546362727.633,112.09012875536482,1341.3919413919414
1650546362753.023,112.02602230483272,1334.7985347985348
1650546362754.242,112.02602230483272,1327.4725274725274
1650546362759.117,112.02602230483272,1323.076923076923
1650546362759.382,112.02602230483272,1317.216117216117
1650546362760.467,111.96198913975422,1313.5531135531135
1650546362789.277,112.02602230483272,1312.8205128205127
1650546362790.298,112.02602230483272,1309.89010989011
1650546362790.3992,111.96198913975422,1307.6923076923076
1650546362814.326,111.96198913975422,1305.4945054945053
1650546362815.711,111.89802913453298,1302.5641025641025
1650546362816.625,111.96198913975422,1299.6336996336995
1650546362816.803,111.96198913975422,1298.168498168498
1650546362817.944,111.89802913453298,1298.9010989010987
1650546362860.48,111.89802913453298,1298.9010989010987
1650546362861.573,111.89802913453298,1298.9010989010987
1650546362869.287,111.89802913453298,1301.098901098901
1650546362869.637,111.89802913453298,1304.0293040293038
1650546362870.529,111.89802913453298,1305.4945054945053
1650546362871.712,111.89802913453298,1307.6923076923076
1650546362871.882,111.89802913453298,1307.6923076923076
1650546362885.521,111.83414216385954,1306.227106227106
1650546362911.7861,111.83414216385954,1305.4945054945053
1650546362912.862,111.83414216385954,1305.4945054945053
1650546362936.623,111.83414216385954,1306.227106227106
1650546362936.778,111.83414216385954,1308.4249084249084
1650546362938.0889,111.83414216385954,1309.1575091575091
1650546362939.2952,111.83414216385954,1308.4249084249084
1650546362947.9612,111.77032810271041,1309.1575091575091
1650546362948.087,111.83414216385954,1307.6923076923076
1650546362974.125,111.83414216385954,1304.7619047619046
1650546362974.357,111.83414216385954,1301.098901098901
1650546362994.225,111.83414216385954,1299.6336996336995
1650546362994.452,111.77032810271041,1301.098901098901
1650546362995.453,111.83414216385954,1303.2967032967033
1650546362996.701,111.77032810271041,1305.4945054945053
1650546363021.7,111.77032810271041,1306.9597069597069
1650546363021.898,111.77032810271041,1306.9597069597069
1650546363023.021,111.77032810271041,1307.6923076923076
1650546363055.408,111.77032810271041,1308.4249084249084
1650546363056.69,111.77032810271041,1307.6923076923076
1650546363056.845,111.77032810271041,1306.9597069597069
1650546363059.254,111.77032810271041,1306.9597069597069
1650546363060.564,111.77032810271041,1307.6923076923076
1650546363085.397,111.77032810271041,1308.4249084249084
1650546363085.554,111.77032810271041,1308.4249084249084
1650546363086.793,111.77032810271041,1306.9597069597069
1650546363112.956,111.77032810271041,1305.4945054945053
1650546363113.18,111.77032810271041,1301.8315018315018
1650546363114.321,111.70658682634729,1298.168498168498
1650546363123.002,111.70658682634729,1293.7728937728937
1650546363124.089,111.77032810271041,1289.3772893772893
1650546363124.165,111.57932213044715,1284.2490842490843
1650546363149.382,111.70658682634729,1276.923076923077
1650546363150.5151,111.70658682634729,1273.260073260073
1650546363172.958,111.70658682634729,1273.9926739926739
1650546363174.221,111.70658682634729,1275.4578754578754
1650546363174.533,111.64291821031632,1277.6556776556777
1650546363175.514,111.64291821031632,1284.9816849816848
1650546363184.3171,111.70658682634729,1296.7032967032967
1650546363214.158,111.64291821031632,1317.9487179487178
1650546363214.289,111.57932213044715,1347.985347985348
1650546363215.481,111.70658682634729,1388.278388278388
1650546363234.141,111.70658682634729,1435.8974358974358
1650546363235.368,111.64291821031632,1489.3772893772893
1650546363235.485,111.57932213044715,1546.5201465201465
1650546363236.736,111.64291821031632,1602.197802197802
1650546363261.79,111.57932213044715,1654.212454212454
1650546363262.107,111.64291821031632,1701.098901098901
1650546363263.0461,111.64291821031632,1738.4615384615383
1650546363289.271,111.64291821031632,1767.7655677655675
1650546363290.3992,111.57932213044715,1783.8827838827838
1650546363299.246,111.70658682634729,1787.5457875457873
1650546363299.508,111.57932213044715,1780.9523809523807
1650546363300.577,111.57932213044715,1764.8351648351647
1650546363325.78,111.64291821031632,1739.194139194139
1650546363326.72,111.51579846285226,1706.9597069597069
1650546363326.903,111.57932213044715,1670.3296703296703
1650546363356.844,111.64291821031632,1634.4322344322343
1650546363357.976,111.64291821031632,1597.069597069597
1650546363359.185,111.64291821031632,1562.6373626373625
1650546363359.3699,111.64291821031632,1529.6703296703295
1650546363360.564,111.57932213044715,1498.168498168498
1650546363385.634,111.57932213044715,1471.062271062271
1650546363386.862,111.64291821031632,1448.3516483516482
1650546363387.107,111.64291821031632,1431.5018315018315
1650546363411.787,111.57932213044715,1419.047619047619
1650546363412.889,111.57932213044715,1409.5238095238094
1650546363421.7278,111.57932213044715,1400.0
1650546363421.915,111.57932213044715,1390.4761904761904
1650546363423.0781,111.57932213044715,1383.8827838827838
1650546363448.159,111.57932213044715,1377.2893772893772
1650546363474.214,111.57932213044715,1372.161172161172
1650546363474.3608,111.57932213044715,1369.230769230769
1650546363475.615,111.57932213044715,1367.7655677655678
1650546363479.391,111.51579846285226,1367.7655677655678
1650546363482.309,111.57932213044715,1368.4981684981683
1650546363482.5598,111.51579846285226,1372.8937728937728
1650546363506.9548,111.57932213044715,1383.8827838827838
1650546363508.166,111.51579846285226,1397.069597069597
1650546363535.497,111.57932213044715,1409.5238095238094
1650546363535.6929,111.57932213044715,1421.245421245421
1650546363536.8298,111.57932213044715,1430.7692307692307
1650546363541.837,111.64291821031632,1440.2930402930401
1650546363542.1182,111.57932213044715,1448.3516483516482
1650546363543.18,111.51579846285226,1454.212454212454
1650546363568.0671,111.57932213044715,1457.8754578754579
1650546363569.236,111.51579846285226,1458.6080586080584
1650546363569.371,111.57932213044715,1457.142857142857
1650546363594.459,111.51579846285226,1452.014652014652
1650546363595.546,111.57932213044715,1446.153846153846
1650546363596.708,111.57932213044715,1439.5604395604394
1650546363598.1282,111.57932213044715,1431.5018315018315
1650546363598.5059,111.51579846285226,1421.245421245421
1650546363623.197,111.51579846285226,1410.989010989011
1650546363624.5078,111.51579846285226,1399.2673992673992
1650546363650.545,111.51579846285226,1388.278388278388
1650546363650.748,111.57932213044715,1378.7545787545787
1650546363651.846,111.51579846285226,1371.4285714285713
1650546363664.339,111.51579846285226,1364.8351648351647
1650546363666.897,111.45234708392603,1358.2417582417581
1650546363667.074,111.51579846285226,1352.3809523809523
1650546363694.376,111.57932213044715,1347.985347985348
1650546363695.7349,111.57932213044715,1344.3223443223442
1650546363695.882,111.57932213044715,1341.3919413919414
1650546363711.965,111.51579846285226,1339.194139194139
1650546363713.237,111.57932213044715,1337.7289377289376
1650546363714.273,111.57932213044715,1336.9963369963368
1650546363728.1448,111.57932213044715,1336.263736263736
1650546363728.3362,111.45234708392603,1335.5311355311355
1650546363754.4092,111.51579846285226,1334.7985347985348
1650546363755.6018,111.51579846285226,1332.6007326007325
1650546363770.629,111.51579846285226,1328.937728937729
1650546363770.89,111.51579846285226,1326.7399267399267
1650546363771.876,111.51579846285226,1327.4725274725274
1650546363781.572,111.51579846285226,1326.7399267399267
1650546363789.392,111.51579846285226,1328.2051282051282
1650546363789.779,111.51579846285226,1329.6703296703297
1650546363814.475,111.51579846285226,1329.6703296703297
1650546363815.541,111.51579846285226,1328.937728937729
1650546363815.679,111.57932213044715,1328.2051282051282
1650546363840.739,111.45234708392603,1325.2747252747251
1650546363841.835,111.51579846285226,1322.3443223443223
1650546363845.591,111.51579846285226,1319.4139194139193
1650546363871.746,111.57932213044715,1315.7509157509157
1650546363871.8618,111.51579846285226,1309.1575091575091
1650546363873.106,111.51579846285226,1301.8315018315018
1650546363894.4858,111.57932213044715,1295.2380952380952
1650546363894.708,111.57932213044715,1285.7142857142856
1650546363896.055,111.51579846285226,1276.923076923077
1650546363896.901,111.51579846285226,1270.3296703296703
1650546363907.117,111.51579846285226,1264.4688644688645
1650546363907.2969,111.45234708392603,1264.4688644688645
1650546363932.344,111.45234708392603,1265.2014652014652
1650546363933.086,111.51579846285226,1269.5970695970695
1650546363950.612,111.51579846285226,1276.1904761904761
1650546363950.793,111.51579846285226,1284.2490842490843
1650546363951.934,111.45234708392603,1290.8424908424909
1650546363953.182,111.51579846285226,1295.2380952380952
1650546363966.841,111.45234708392603,1298.168498168498
1650546363967.022,111.51579846285226,1297.4358974358975
1650546364000.719,111.45234708392603,1295.970695970696
1650546364001.8762,111.45234708392603,1293.040293040293
1650546364002.2021,111.45234708392603,1290.10989010989
1650546364002.244,111.51579846285226,1286.4468864468863
1650546364013.269,111.45234708392603,1282.051282051282
1650546364015.104,111.51579846285226,1277.6556776556777
1650546364028.04,111.51579846285226,1271.062271062271
1650546364028.199,111.51579846285226,1267.3992673992673
1650546364056.098,111.51579846285226,1264.4688644688645
1650546364056.946,111.51579846285226,1263.003663003663
1650546364079.4219,111.51579846285226,1260.8058608058607
1650546364080.473,111.51579846285226,1260.07326007326
1650546364080.534,111.45234708392603,1261.5384615384614
1650546364085.254,111.51579846285226,1264.4688644688645
1650546364106.8872,111.45234708392603,1268.131868131868
1650546364108.021,111.45234708392603,1272.5274725274724
1650546364108.211,111.51579846285226,1275.4578754578754
1650546364135.781,111.51579846285226,1279.120879120879
1650546364136.892,111.51579846285226,1280.5860805860805
1650546364140.5188,111.45234708392603,1284.2490842490843
1650546364140.6282,111.45234708392603,1285.7142857142856
1650546364143.2021,111.51579846285226,1288.6446886446886
1650546364169.327,111.51579846285226,1288.6446886446886
1650546364169.576,111.45234708392603,1288.6446886446886
1650546364170.676,111.51579846285226,1286.4468864468863
1650546364197.26,111.51579846285226,1285.7142857142856
1650546364198.121,111.51579846285226,1289.3772893772893
1650546364198.287,111.57932213044715,1296.7032967032967
1650546364199.451,111.45234708392603,1307.6923076923076
1650546364208.205,111.51579846285226,1322.3443223443223
1650546364235.6829,111.51579846285226,1346.5201465201465
1650546364236.804,111.51579846285226,1378.7545787545787
1650546364237.0352,111.51579846285226,1417.5824175824175
1650546364254.557,111.51579846285226,1465.201465201465
1650546364256.454,111.51579846285226,1520.14652014652
1650546364256.843,111.45234708392603,1579.4871794871794
1650546364256.94,111.51579846285226,1638.095238095238
1650546364292.0671,111.51579846285226,1695.2380952380952
1650546364314.755,111.51579846285226,1743.5897435897434
1650546364315.5999,111.57932213044715,1781.6849816849815
1650546364315.731,111.45234708392603,1808.7912087912086
1650546364316.998,111.51579846285226,1824.9084249084249
1650546364318.288,111.45234708392603,1828.5714285714284
1650546364319.351,111.51579846285226,1822.7106227106226
1650546364319.572,111.45234708392603,1806.5934065934064
1650546364344.461,111.51579846285226,1781.6849816849815
1650546364345.5452,111.51579846285226,1746.5201465201465
1650546364370.61,111.51579846285226,1708.4249084249084
1650546364370.832,111.51579846285226,1669.5970695970695
1650546364371.905,111.57932213044715,1631.5018315018315
1650546364383.2058,111.57932213044715,1593.4065934065934
1650546364384.385,111.51579846285226,1557.5091575091574
1650546364384.571,111.51579846285226,1526.7399267399267
1650546364411.98,111.57932213044715,1498.168498168498
1650546364413.003,111.57932213044715,1472.5274725274724
1650546364433.471,111.57932213044715,1452.7472527472526
1650546364433.746,111.51579846285226,1438.095238095238
1650546364434.406,111.57932213044715,1429.3040293040292
1650546364435.7341,111.57932213044715,1423.4432234432234
1650546364444.396,111.57932213044715,1421.245421245421
1650546364444.563,111.51579846285226,1423.4432234432234
1650546364479.439,111.51579846285226,1427.106227106227
1650546364480.541,111.57932213044715,1431.5018315018315
1650546364491.7842,111.57932213044715,1435.8974358974358
1650546364491.9219,111.57932213044715,1440.2930402930401
1650546364493.187,111.57932213044715,1443.2234432234432
1650546364494.3909,111.51579846285226,1444.6886446886447
1650546364508.166,111.57932213044715,1443.956043956044
1650546364508.4119,111.51579846285226,1446.153846153846
1650546364533.205,111.57932213044715,1450.5494505494505
1650546364534.279,111.57932213044715,1457.142857142857
1650546364556.7988,111.64291821031632,1460.8058608058607
1650546364556.908,111.57932213044715,1463.7362637362637
1650546364558.2312,111.57932213044715,1467.3992673992673
1650546364559.467,111.57932213044715,1474.7252747252746
1650546364585.6472,111.57932213044715,1480.5860805860805
1650546364585.825,111.57932213044715,1487.9120879120878
1650546364586.936,111.57932213044715,1492.3076923076922
1650546364613.068,111.57932213044715,1495.970695970696
1650546364614.302,111.57932213044715,1496.7032967032967
1650546364614.452,111.57932213044715,1495.970695970696
1650546364622.029,111.64291821031632,1493.7728937728937
1650546364623.8042,111.64291821031632,1488.6446886446886
1650546364648.098,111.51579846285226,1482.7838827838827
1650546364648.244,111.57932213044715,1473.260073260073
1650546364649.38,111.57932213044715,1467.3992673992673
1650546364673.1228,111.64291821031632,1458.6080586080584
1650546364676.03,111.57932213044715,1449.084249084249
1650546364676.27,111.64291821031632,1440.2930402930401
1650546364676.398,111.64291821031632,1430.7692307692307
1650546364684.551,111.64291821031632,1419.047619047619
1650546364725.789,111.57932213044715,1408.058608058608
1650546364726.454,111.57932213044715,1395.6043956043954
1650546364726.958,111.64291821031632,1386.080586080586
1650546364728.124,111.57932213044715,1376.5567765567764
1650546364728.2651,111.70658682634729,1367.032967032967
1650546364728.294,111.64291821031632,1360.4395604395604
1650546364742.115,111.70658682634729,1356.0439560439559
1650546364743.388,111.70658682634729,1353.113553113553
1650546364743.642,111.70658682634729,1353.113553113553
1650546364768.224,111.64291821031632,1354.5787545787546
1650546364797.055,111.70658682634729,1358.2417582417581
1650546364801.625,111.70658682634729,1359.7069597069597
1650546364804.677,111.64291821031632,1363.3699633699632
1650546364804.888,111.70658682634729,1365.5677655677655
1650546364805.72,111.70658682634729,1367.7655677655678
1650546364806.9119,111.70658682634729,1367.7655677655678
1650546364833.19,111.70658682634729,1368.4981684981683
1650546364833.3809,111.70658682634729,1368.4981684981683
1650546364834.463,111.70658682634729,1367.7655677655678
1650546364854.389,111.70658682634729,1366.3003663003662
1650546364855.5952,111.70658682634729,1365.5677655677655
1650546364855.824,111.70658682634729,1363.3699633699632
1650546364860.7668,111.70658682634729,1362.6373626373625
1650546364886.956,111.70658682634729,1360.4395604395604
1650546364888.114,111.70658682634729,1360.4395604395604
1650546364888.241,111.70658682634729,1358.974358974359
1650546364915.8079,111.70658682634729,1357.5091575091574
1650546364919.341,111.70658682634729,1353.113553113553
1650546364924.329,111.77032810271041,1347.985347985348
1650546364924.45,111.70658682634729,1342.8571428571427
1650546364925.6648,111.77032810271041,1341.3919413919414
1650546364950.8481,111.77032810271041,1341.3919413919414
1650546364951.853,111.70658682634729,1342.8571428571427
1650546364952.099,111.77032810271041,1344.3223443223442
1650546364978.311,111.77032810271041,1345.7875457875457
1650546364979.327,111.77032810271041,1347.2527472527472
1650546364983.1072,111.77032810271041,1349.4505494505493
1650546364983.272,111.70658682634729,1349.4505494505493
1650546365012.0261,111.77032810271041,1348.7179487179487
1650546365013.205,111.77032810271041,1345.7875457875457
1650546365034.43,111.83414216385954,1343.5897435897434
1650546365034.646,111.77032810271041,1339.9267399267399
1650546365036.06,111.77032810271041,1337.7289377289376
1650546365038.073,111.77032810271041,1333.3333333333333
1650546365039.389,111.83414216385954,1328.2051282051282
1650546365039.5552,111.77032810271041,1323.8095238095236
1650546365067.115,111.83414216385954,1323.076923076923
1650546365068.1602,111.83414216385954,1317.9487179487178
1650546365068.459,111.89802913453298,1313.5531135531135
1650546365094.5498,111.77032810271041,1309.89010989011
1650546365095.695,111.83414216385954,1309.1575091575091
1650546365096.7988,111.83414216385954,1305.4945054945053
1650546365101.827,111.89802913453298,1303.2967032967033
1650546365101.95,111.83414216385954,1301.8315018315018
1650546365136.974,111.83414216385954,1304.0293040293038
1650546365138.092,111.83414216385954,1304.0293040293038
1650546365138.234,111.89802913453298,1304.0293040293038
1650546365156.935,111.83414216385954,1304.7619047619046
1650546365158.216,111.89802913453298,1307.6923076923076
1650546365159.311,111.83414216385954,1311.3553113553112
1650546365164.4238,111.83414216385954,1315.018315018315
1650546365164.643,111.83414216385954,1320.14652014652
1650546365189.507,111.89802913453298,1323.8095238095236
1650546365190.694,111.83414216385954,1325.2747252747251
1650546365190.819,111.89802913453298,1326.007326007326
1650546365215.7031,111.83414216385954,1326.007326007326
1650546365216.9348,111.83414216385954,1327.4725274725274
1650546365221.907,111.89802913453298,1327.4725274725274
1650546365223.1382,111.89802913453298,1328.2051282051282
1650546365223.376,111.83414216385954,1326.7399267399267
1650546365250.753,111.83414216385954,1328.2051282051282
1650546365251.941,111.89802913453298,1328.937728937729
1650546365274.43,111.96198913975422,1331.8681318681317
1650546365274.83,111.89802913453298,1334.7985347985348
1650546365275.727,111.89802913453298,1339.9267399267399
1650546365276.864,111.96198913975422,1345.7875457875457
1650546365304.478,111.96198913975422,1357.5091575091574
1650546365304.727,111.89802913453298,1374.3589743589744
1650546365305.876,111.89802913453298,1397.069597069597
1650546365330.768,111.96198913975422,1427.8388278388277
1650546365331.857,111.96198913975422,1468.131868131868
1650546365332.0032,111.89802913453298,1515.018315018315
1650546365340.779,111.96198913975422,1568.4981684981683
1650546365346.9492,111.89802913453298,1624.1758241758241
1650546365347.179,111.83414216385954,1679.8534798534797
1650546365379.457,111.96198913975422,1728.2051282051282
1650546365380.699,111.96198913975422,1773.6263736263736
1650546365395.616,111.96198913975422,1805.8608058608058
1650546365395.774,112.02602230483272,1829.3040293040292
1650546365396.945,111.96198913975422,1842.4908424908424
1650546365398.565,111.96198913975422,1846.8864468864467
1650546365404.58,111.96198913975422,1839.5604395604394
1650546365431.8699,112.02602230483272,1823.4432234432234
1650546365432.038,111.96198913975422,1797.8021978021977
1650546365436.0571,112.02602230483272,1767.032967032967
1650546365460.727,112.02602230483272,1728.937728937729
1650546365460.9648,112.02602230483272,1686.4468864468863
1650546365461.93,112.02602230483272,1644.6886446886447
1650546365463.2312,111.96198913975422,1604.3956043956043
1650546365464.3372,112.02602230483272,1565.5677655677655
1650546365491.842,112.02602230483272,1532.6007326007325
1650546365492.012,112.02602230483272,1504.0293040293038
1650546365493.246,112.02602230483272,1480.5860805860805
1650546365514.414,112.02602230483272,1463.003663003663
1650546365515.6829,112.02602230483272,1449.084249084249
1650546365515.909,112.09012875536482,1441.0256410256409
1650546365517.008,112.09012875536482,1437.3626373626373
1650546365541.883,112.02602230483272,1435.164835164835
1650546365542.068,112.09012875536482,1432.9670329670328
1650546365543.221,112.02602230483272,1431.5018315018315
1650546365569.561,112.09012875536482,1428.5714285714284
1650546365570.7651,112.02602230483272,1426.3736263736262
1650546365578.257,112.02602230483272,1424.9084249084249
1650546365578.412,112.09012875536482,1425.6410256410256
1650546365579.4338,112.09012875536482,1428.5714285714284
1650546365604.33,112.09012875536482,1432.2344322344322
1650546365604.455,112.09012875536482,1436.6300366300366
1650546365605.688,112.09012875536482,1443.2234432234432
1650546365630.7349,112.15430861723448,1452.014652014652
1650546365631.9001,112.09012875536482,1458.6080586080584
1650546365645.565,112.15430861723448,1465.9340659340658
1650546365645.709,112.09012875536482,1471.062271062271
1650546365646.926,112.09012875536482,1475.4578754578754
1650546365671.949,112.09012875536482,1479.8534798534797
1650546365672.199,112.15430861723448,1481.3186813186812
1650546365673.23,112.09012875536482,1478.3882783882782
1650546365701.0269,112.15430861723448,1476.1904761904761
1650546365702.1,112.15430861723448,1472.5274725274724
1650546365703.031,112.15430861723448,1471.062271062271
1650546365703.1292,112.09012875536482,1468.131868131868
1650546365704.4338,112.09012875536482,1465.9340659340658
1650546365735.71,112.15430861723448,1462.2710622710622
1650546365735.97,112.09012875536482,1457.142857142857
1650546365736.9312,112.15430861723448,1450.5494505494505
1650546365758.2131,112.21856201661416,1444.6886446886447
1650546365759.292,112.15430861723448,1435.164835164835
1650546365759.403,112.21856201661416,1426.3736263736262
1650546365760.709,112.15430861723448,1416.117216117216
1650546365769.5552,112.21856201661416,1408.058608058608
1650546365803.195,112.21856201661416,1399.2673992673992
1650546365804.372,112.15430861723448,1389.7435897435896
1650546365804.553,112.21856201661416,1378.7545787545787
1650546365814.569,112.21856201661416,1369.230769230769
1650546365815.9658,112.21856201661416,1364.102564102564
1650546365816.854,112.21856201661416,1361.904761904762
1650546365817.029,112.21856201661416,1359.7069597069597
1650546365841.9758,112.21856201661416,1359.7069597069597
1650546365843.103,112.21856201661416,1358.2417582417581
1650546365869.508,112.21856201661416,1359.7069597069597
1650546365869.6958,112.21856201661416,1357.5091575091574
1650546365870.665,112.28288907996561,1356.0439560439559
1650546365879.437,112.21856201661416,1353.8461538461538
1650546365880.545,112.21856201661416,1353.113553113553
1650546365880.733,112.21856201661416,1352.3809523809523
1650546365909.569,112.21856201661416,1353.113553113553
1650546365909.6938,112.21856201661416,1353.113553113553
1650546365934.4348,112.28288907996561,1354.5787545787546
1650546365934.679,112.28288907996561,1355.3113553113553
1650546365943.313,112.28288907996561,1355.3113553113553
1650546365944.541,112.21856201661416,1352.3809523809523
1650546365945.663,112.28288907996561,1350.18315018315
1650546365945.871,112.28288907996561,1347.2527472527472
1650546365974.4812,112.28288907996561,1345.054945054945
1650546365975.523,112.34728993404073,1342.1245421245421
1650546365979.328,112.34728993404073,1343.5897435897434
1650546365979.471,112.28288907996561,1344.3223443223442
1650546366000.8591,112.34728993404073,1348.7179487179487
1650546366003.0342,112.28288907996561,1350.9157509157508
1650546366003.368,112.34728993404073,1354.5787545787546
1650546366003.449,112.28288907996561,1355.3113553113553
1650546366030.724,112.28288907996561,1356.0439560439559
1650546366059.9512,112.34728993404073,1355.3113553113553
1650546366060.09,112.34728993404073,1353.8461538461538
1650546366060.122,112.28288907996561,1350.9157509157508
1650546366060.149,112.34728993404073,1347.2527472527472
1650546366065.678,112.34728993404073,1342.8571428571427
1650546366066.7888,112.34728993404073,1339.194139194139
1650546366066.935,112.34728993404073,1337.7289377289376
1650546366095.738,112.34728993404073,1336.9963369963368
1650546366096.8079,112.34728993404073,1339.194139194139
1650546366109.334,112.28288907996561,1339.9267399267399
1650546366109.509,112.41176470588236,1339.9267399267399
1650546366123.4119,112.34728993404073,1341.3919413919414
1650546366148.217,112.34728993404073,1342.8571428571427
1650546366149.312,112.34728993404073,1343.5897435897434
1650546366149.457,112.34728993404073,1342.8571428571427
1650546366175.789,112.28288907996561,1344.3223443223442
1650546366176.811,112.34728993404073,1345.054945054945
1650546366178.131,112.41176470588236,1342.1245421245421
1650546366178.397,112.34728993404073,1337.7289377289376
1650546366179.527,112.41176470588236,1332.6007326007325
1650546366185.824,112.41176470588236,1326.7399267399267
1650546366217.011,112.28288907996561,1323.076923076923
1650546366217.291,112.41176470588236,1317.9487179487178
1650546366218.169,112.41176470588236,1317.216117216117
1650546366235.6228,112.41176470588236,1320.14652014652
1650546366236.8481,112.41176470588236,1322.3443223443223
1650546366237.0378,112.41176470588236,1324.5421245421244
1650546366238.2021,112.41176470588236,1328.2051282051282
1650546366263.202,112.47631352282517,1332.6007326007325
1650546366263.387,112.34728993404073,1334.7985347985348
1650546366264.432,112.47631352282517,1337.7289377289376
1650546366289.718,112.41176470588236,1339.194139194139
1650546366290.626,112.47631352282517,1340.6593406593406
1650546366299.35,112.41176470588236,1340.6593406593406
1650546366299.546,112.47631352282517,1337.7289377289376
1650546366300.7131,112.41176470588236,1336.263736263736
1650546366328.167,112.47631352282517,1334.065934065934
1650546366329.2898,112.34728993404073,1334.065934065934
1650546366329.608,112.47631352282517,1336.263736263736
1650546366353.141,112.41176470588236,1341.3919413919414
1650546366354.2832,112.47631352282517,1349.4505494505493
1650546366355.552,112.47631352282517,1361.904761904762
1650546366355.7031,112.54093651249642,1380.952380952381
1650546366394.4658,112.41176470588236,1405.128205128205
1650546366395.7341,112.41176470588236,1436.6300366300366
1650546366415.601,112.47631352282517,1476.923076923077
1650546366415.7988,112.47631352282517,1523.8095238095236
1650546366416.891,112.41176470588236,1575.8241758241757
1650546366418.032,112.47631352282517,1627.8388278388277
1650546366419.332,112.41176470588236,1675.4578754578754
1650546366419.464,112.54093651249642,1715.7509157509157
1650546366444.509,112.47631352282517,1749.4505494505493
1650546366445.852,112.47631352282517,1773.6263736263736
1650546366470.66,112.47631352282517,1787.5457875457873
1650546366470.9238,112.60563380281691,1790.4761904761904
1650546366471.907,112.54093651249642,1783.150183150183
1650546366483.1892,112.54093651249642,1766.3003663003662
1650546366485.698,112.54093651249642,1741.3919413919414
1650546366485.958,112.54093651249642,1712.087912087912
1650546366486.9949,112.47631352282517,1678.3882783882782
1650546366511.89,112.47631352282517,1638.8278388278386
1650546366512.072,112.54093651249642,1597.069597069597
1650546366513.113,112.60563380281691,1556.7765567765566
1650546366536.915,112.54093651249642,1520.8791208791208
1650546366538.111,112.54093651249642,1485.7142857142856
1650546366539.297,112.54093651249642,1456.4102564102564
1650546366539.4321,112.60563380281691,1432.9670329670328
1650546366564.4,112.47631352282517,1416.8498168498168
1650546366565.529,112.54093651249642,1402.197802197802
1650546366565.665,112.54093651249642,1392.6739926739926
1650546366594.468,112.60563380281691,1386.8131868131868
1650546366595.668,112.54093651249642,1383.8827838827838
1650546366603.048,112.60563380281691,1378.7545787545787
1650546366606.055,112.54093651249642,1375.091575091575
1650546366606.224,112.60563380281691,1372.161172161172
1650546366632.102,112.54093651249642,1374.3589743589744
1650546366633.217,112.60563380281691,1377.2893772893772
1650546366651.953,112.60563380281691,1383.150183150183
1650546366652.263,112.60563380281691,1389.0109890109889
1650546366653.2642,112.60563380281691,1394.8717948717947
1650546366654.323,112.54093651249642,1401.4652014652013
1650546366668.081,112.60563380281691,1408.7912087912086
1650546366668.257,112.54093651249642,1417.5824175824175
1650546366693.305,112.54093651249642,1428.5714285714284
1650546366694.304,112.60563380281691,1440.2930402930401
1650546366694.4429,112.60563380281691,1452.7472527472526
1650546366717.112,112.60563380281691,1463.003663003663
1650546366718.132,112.60563380281691,1472.5274725274724
1650546366719.2979,112.60563380281691,1477.6556776556777
1650546366728.125,112.67040552200173,1479.8534798534797
1650546366728.311,112.67040552200173,1479.8534798534797
1650546366755.6719,112.54093651249642,1478.3882783882782
1650546366756.905,112.60563380281691,1473.9926739926739
1650546366780.069,112.67040552200173,1467.3992673992673
1650546366780.226,112.73525179856115,1460.07326007326
1650546366780.636,112.60563380281691,1452.7472527472526
1650546366781.827,112.60563380281691,1443.956043956044
1650546366811.86,112.67040552200173,1434.4322344322343
1650546366812.0479,112.67040552200173,1425.6410256410256
1650546366813.632,112.60563380281691,1416.8498168498168
1650546366830.583,112.67040552200173,1407.3260073260071
1650546366830.8762,112.67040552200173,1394.8717948717947
1650546366832.365,112.67040552200173,1383.150183150183
1650546366833.438,112.67040552200173,1374.3589743589744
1650546366846.79,112.67040552200173,1367.7655677655678
1650546366848.311,112.60563380281691,1362.6373626373625
1650546366848.51,112.67040552200173,1357.5091575091574
1650546366873.18,112.60563380281691,1353.8461538461538
1650546366874.372,112.60563380281691,1353.113553113553
1650546366898.107,112.60563380281691,1352.3809523809523
1650546366898.335,112.67040552200173,1352.3809523809523
1650546366899.384,112.67040552200173,1353.8461538461538
1650546366900.5771,112.67040552200173,1355.3113553113553
1650546366936.738,112.67040552200173,1353.8461538461538
1650546366936.886,112.67040552200173,1353.8461538461538
1650546366938.1052,112.60563380281691,1353.8461538461538
1650546366951.855,112.67040552200173,1352.3809523809523
1650546366953.0352,112.67040552200173,1351.6483516483515
1650546366953.185,112.73525179856115,1350.9157509157508
1650546366954.334,112.67040552200173,1350.9157509157508
1650546366969.5051,112.67040552200173,1350.9157509157508
1650546366969.726,112.67040552200173,1349.4505494505493
1650546366999.329,112.73525179856115,1347.985347985348
1650546367000.659,112.67040552200173,1347.985347985348
1650546367021.97,112.67040552200173,1349.4505494505493
1650546367022.995,112.73525179856115,1347.985347985348
1650546367023.1782,112.73525179856115,1347.2527472527472
1650546367024.3508,112.67040552200173,1347.985347985348
1650546367025.574,112.73525179856115,1348.7179487179487
1650546367056.855,112.67040552200173,1350.18315018315
1650546367056.997,112.67040552200173,1351.6483516483515
1650546367057.044,112.67040552200173,1353.113553113553
1650546367076.8572,112.73525179856115,1352.3809523809523
1650546367078.018,112.73525179856115,1353.113553113553
1650546367078.168,112.73525179856115,1352.3809523809523
1650546367079.363,112.73525179856115,1352.3809523809523
1650546367106.751,112.73525179856115,1350.18315018315
1650546367106.947,112.73525179856115,1349.4505494505493
1650546367108.031,112.67040552200173,1347.985347985348
1650546367134.358,112.73525179856115,1347.985347985348
1650546367138.234,112.60563380281691,1348.7179487179487
1650546367139.239,112.67040552200173,1350.18315018315
1650546367139.3809,112.73525179856115,1348.7179487179487
1650546367145.605,112.73525179856115,1347.985347985348
1650546367170.4832,112.67040552200173,1347.2527472527472
1650546367170.775,112.73525179856115,1347.985347985348
1650546367171.7961,112.73525179856115,1348.7179487179487
1650546367198.2378,112.73525179856115,1350.18315018315
1650546367199.378,112.73525179856115,1349.4505494505493
1650546367200.4521,112.73525179856115,1347.2527472527472
1650546367200.636,112.80017276130148,1345.054945054945
1650546367210.855,112.67040552200173,1342.8571428571427
1650546367235.519,112.67040552200173,1341.3919413919414
1650546367235.734,112.73525179856115,1337.7289377289376
1650546367236.821,112.80017276130148,1334.065934065934
1650546367250.591,112.73525179856115,1331.8681318681317
1650546367251.676,112.73525179856115,1330.4029304029302
1650546367251.806,112.73525179856115,1330.4029304029302
1650546367266.895,112.73525179856115,1330.4029304029302
1650546367268.148,112.67040552200173,1329.6703296703297
1650546367292.968,112.73525179856115,1326.007326007326
1650546367293.124,112.67040552200173,1321.6117216117216
1650546367294.414,112.80017276130148,1316.4835164835165
1650546367319.416,112.67040552200173,1315.018315018315
1650546367320.435,112.73525179856115,1313.5531135531135
1650546367320.6191,112.73525179856115,1312.8205128205127
1650546367326.8262,112.80017276130148,1315.018315018315
1650546367328.083,112.73525179856115,1322.3443223443223
1650546367354.3242,112.73525179856115,1334.065934065934
1650546367355.4941,112.73525179856115,1348.7179487179487
1650546367355.7488,112.80017276130148,1369.230769230769
1650546367373.141,112.67040552200173,1397.069597069597
1650546367374.342,112.67040552200173,1430.7692307692307
1650546367382.941,112.73525179856115,1471.7948717948716
1650546367383.073,112.80017276130148,1518.6813186813185
1650546367408.134,112.60563380281691,1572.8937728937728
1650546367409.272,112.73525179856115,1624.1758241758241
1650546367434.399,112.73525179856115,1673.9926739926739
1650546367434.768,112.80017276130148,1719.4139194139193
1650546367435.553,112.67040552200173,1759.7069597069597
1650546367444.3308,112.73525179856115,1789.7435897435896
1650546367445.4,112.73525179856115,1808.7912087912086
1650546367445.547,112.80017276130148,1814.6520146520145
1650546367474.3918,112.67040552200173,1808.7912087912086
1650546367475.408,112.73525179856115,1791.9413919413919
1650546367491.74,112.73525179856115,1764.8351648351647
1650546367491.941,112.80017276130148,1731.135531135531
1650546367493.119,112.73525179856115,1693.7728937728937
1650546367494.2961,112.73525179856115,1655.6776556776556
1650546367507.886,112.73525179856115,1617.5824175824175
1650546367508.004,112.73525179856115,1582.4175824175823
1650546367536.918,112.67040552200173,1549.4505494505493
1650546367556.8508,112.73525179856115,1518.6813186813185
1650546367557.1511,112.73525179856115,1490.10989010989
1650546367558.038,112.80017276130148,1464.4688644688645
1650546367559.222,112.73525179856115,1445.4212454212454
1650546367561.6301,112.80017276130148,1430.03663003663
1650546367561.747,112.80017276130148,1418.3150183150183
1650546367590.573,112.73525179856115,1412.4542124542124
1650546367591.99,112.73525179856115,1409.5238095238094
1650546367614.219,112.80017276130148,1411.7216117216117
1650546367615.387,112.80017276130148,1413.1868131868132
1650546367615.563,112.80017276130148,1414.6520146520145
1650546367616.7742,112.73525179856115,1419.047619047619
1650546367618.019,112.80017276130148,1421.9780219780218
1650546367650.443,112.80017276130148,1422.7106227106226
1650546367650.5898,112.80017276130148,1422.7106227106226
1650546367651.762,112.73525179856115,1422.7106227106226
1650546367672.9119,112.80017276130148,1424.9084249084249
1650546367674.2,112.73525179856115,1428.5714285714284
1650546367674.4001,112.80017276130148,1437.3626373626373
1650546367675.559,112.73525179856115,1445.4212454212454
1650546367689.249,112.80017276130148,1454.212454212454
1650546367714.23,112.73525179856115,1463.003663003663
1650546367714.4712,112.80017276130148,1469.5970695970695
1650546367715.484,112.73525179856115,1474.7252747252746
1650546367737.968,112.80017276130148,1480.5860805860805
1650546367739.137,112.80017276130148,1484.2490842490843
1650546367739.295,112.73525179856115,1487.179487179487
1650546367740.4739,112.80017276130148,1487.179487179487
1650546367749.244,112.80017276130148,1484.9816849816848
1650546367774.167,112.67040552200173,1481.3186813186812
1650546367774.353,112.80017276130148,1474.7252747252746
1650546367775.4878,112.73525179856115,1470.3296703296703
1650546367788.011,112.80017276130148,1463.7362637362637
1650546367789.275,112.73525179856115,1456.4102564102564
1650546367789.443,112.80017276130148,1447.6190476190475
1650546367803.18,112.80017276130148,1438.095238095238
1650546367809.273,112.86516853932585,1426.3736263736262
1650546367809.425,112.80017276130148,1414.6520146520145
1650546367834.303,112.80017276130148,1404.3956043956043
1650546367835.4858,112.80017276130148,1392.6739926739926
1650546367861.701,112.73525179856115,1380.952380952381
1650546367861.9521,112.80017276130148,1371.4285714285713
1650546367863.3271,112.86516853932585,1365.5677655677655
1650546367864.241,112.80017276130148,1361.904761904762
1650546367889.133,112.86516853932585,1358.2417582417581
1650546367890.302,112.73525179856115,1356.7765567765566
1650546367890.409,112.86516853932585,1353.8461538461538
1650546367915.469,112.80017276130148,1350.9157509157508
1650546367916.5881,112.80017276130148,1347.2527472527472
1650546367917.9028,112.80017276130148,1345.7875457875457
1650546367918.154,112.86516853932585,1344.3223443223442
1650546367926.713,112.80017276130148,1345.7875457875457
1650546367957.952,112.80017276130148,1345.7875457875457
1650546367959.115,112.86516853932585,1347.2527472527472
1650546367959.276,112.93023926203517,1350.18315018315
1650546367971.672,112.80017276130148,1353.113553113553
1650546367972.825,112.86516853932585,1353.8461538461538
1650546367974.155,112.80017276130148,1353.113553113553
1650546367974.365,112.86516853932585,1352.3809523809523
1650546367988.018,112.80017276130148,1353.8461538461538
1650546368015.471,112.86516853932585,1353.8461538461538
1650546368017.555,112.80017276130148,1354.5787545787546
1650546368017.705,112.80017276130148,1352.3809523809523
1650546368031.78,112.86516853932585,1351.6483516483515
1650546368032.78,112.86516853932585,1350.9157509157508
1650546368037.801,112.86516853932585,1351.6483516483515
1650546368037.948,112.93023926203517,1353.8461538461538
1650546368067.917,112.80017276130148,1356.0439560439559
1650546368069.1472,112.93023926203517,1355.3113553113553
1650546368095.34,112.86516853932585,1355.3113553113553
1650546368095.4858,112.93023926203517,1352.3809523809523
1650546368096.709,112.86516853932585,1350.18315018315
1650546368101.5798,112.86516853932585,1347.2527472527472
1650546368101.774,112.86516853932585,1345.054945054945
1650546368103.011,112.86516853932585,1342.1245421245421
1650546368129.2268,112.80017276130148,1340.6593406593406
1650546368130.334,112.93023926203517,1339.9267399267399
1650546368130.5288,112.86516853932585,1341.3919413919414
1650546368156.6821,112.93023926203517,1342.1245421245421
1650546368157.919,112.86516853932585,1345.054945054945
1650546368159.075,112.93023926203517,1345.7875457875457
1650546368164.178,112.86516853932585,1345.7875457875457
1650546368164.4238,112.93023926203517,1345.054945054945
1650546368189.22,112.80017276130148,1346.5201465201465
1650546368190.26,112.93023926203517,1344.3223443223442
1650546368190.352,112.93023926203517,1342.8571428571427
1650546368215.4739,112.93023926203517,1339.9267399267399
1650546368216.654,112.86516853932585,1339.194139194139
1650546368217.914,112.93023926203517,1336.263736263736
1650546368244.118,112.93023926203517,1336.263736263736
1650546368244.2988,112.93023926203517,1335.5311355311355
1650546368245.412,112.86516853932585,1337.7289377289376
1650546368274.115,112.93023926203517,1337.7289377289376
1650546368274.2651,112.86516853932585,1337.7289377289376
1650546368274.3088,112.93023926203517,1338.4615384615383
1650546368280.456,112.86516853932585,1339.9267399267399
1650546368281.706,112.93023926203517,1341.3919413919414
1650546368316.622,112.93023926203517,1342.8571428571427
1650546368316.845,112.93023926203517,1343.5897435897434
1650546368318.145,112.86516853932585,1343.5897435897434
1650546368334.239,112.93023926203517,1342.1245421245421
1650546368335.267,112.93023926203517,1340.6593406593406
1650546368335.4841,112.99538505912894,1340.6593406593406
1650546368336.699,112.86516853932585,1339.194139194139
1650546368337.83,112.93023926203517,1337.7289377289376
1650546368365.221,112.93023926203517,1334.7985347985348
1650546368365.337,112.93023926203517,1328.937728937729
1650546368395.447,112.86516853932585,1326.007326007326
1650546368396.604,112.99538505912894,1320.8791208791208
1650546368400.216,112.93023926203517,1319.4139194139193
1650546368400.317,112.99538505912894,1321.6117216117216
1650546368401.613,112.86516853932585,1332.6007326007325
1650546368402.7031,112.99538505912894,1349.4505494505493
1650546368427.929,112.93023926203517,1372.161172161172
1650546368428.109,112.86516853932585,1404.3956043956043
1650546368432.342,112.93023926203517,1443.2234432234432
1650546368454.146,112.99538505912894,1490.10989010989
1650546368455.2368,112.99538505912894,1539.9267399267399
1650546368455.4119,112.93023926203517,1595.6043956043954
1650546368456.696,112.86516853932585,1651.2820512820513
1650546368481.293,112.93023926203517,1701.098901098901
1650546368481.471,112.86516853932585,1745.054945054945
1650546368481.512,112.99538505912894,1778.7545787545787
1650546368505.437,112.93023926203517,1802.9304029304028
1650546368506.809,112.93023926203517,1816.8498168498168
1650546368516.47,112.99538505912894,1821.245421245421
1650546368516.5962,112.99538505912894,1815.3846153846152
1650546368517.7761,112.93023926203517,1801.4652014652013
1650546368546.597,112.99538505912894,1777.2893772893772
1650546368546.819,112.86516853932585,1745.7875457875457
1650546368547.865,112.99538505912894,1710.6227106227104
1650546368574.166,112.93023926203517,1671.7948717948716
1650546368575.195,112.99538505912894,1631.5018315018315
1650546368575.337,112.99538505912894,1590.4761904761904
1650546368576.7468,113.06060606060606,1554.5787545787546
1650546368577.877,112.93023926203517,1523.0769230769229
1650546368611.542,112.93023926203517,1494.5054945054944
1650546368611.768,112.99538505912894,1471.062271062271
1650546368612.9849,112.99538505912894,1452.014652014652
1650546368633.005,112.93023926203517,1439.5604395604394
1650546368634.208,113.06060606060606,1427.8388278388277
1650546368635.17,112.93023926203517,1421.245421245421
1650546368635.297,113.06060606060606,1415.3846153846152
1650546368649.2761,112.99538505912894,1414.6520146520145
1650546368677.836,112.99538505912894,1415.3846153846152
1650546368677.979,112.99538505912894,1413.9194139194137
1650546368679.034,112.99538505912894,1413.9194139194137
1650546368692.854,112.99538505912894,1412.4542124542124
1650546368694.0452,112.99538505912894,1413.1868131868132
1650546368695.175,112.99538505912894,1416.117216117216
1650546368695.3171,113.06060606060606,1421.245421245421
1650546368709.2258,112.93023926203517,1427.8388278388277
1650546368736.439,113.06060606060606,1433.6996336996335
1650546368739.737,112.99538505912894,1439.5604395604394
1650546368739.897,113.06060606060606,1448.3516483516482
1650546368757.771,112.99538505912894,1457.8754578754579
1650546368758.946,112.99538505912894,1465.201465201465
1650546368790.459,112.99538505912894,1472.5274725274724
1650546368790.711,113.06060606060606,1477.6556776556777
1650546368791.4988,112.99538505912894,1482.7838827838827
1650546368813.648,112.99538505912894,1484.9816849816848
1650546368813.851,113.06060606060606,1484.2490842490843
1650546368813.885,113.06060606060606,1482.7838827838827
1650546368813.941,112.99538505912894,1482.051282051282
1650546368815.301,112.99538505912894,1479.120879120879
1650546368816.652,112.99538505912894,1476.923076923077
1650546368816.7952,113.06060606060606,1472.5274725274724
1650546368844.08,112.99538505912894,1466.6666666666665
1650546368845.1582,113.06060606060606,1458.6080586080584
1650546368871.887,113.06060606060606,1450.5494505494505
1650546368872.2551,113.12590239676581,1440.2930402930401
1650546368872.8281,112.99538505912894,1429.3040293040292
1650546368881.5488,113.06060606060606,1415.3846153846152
1650546368882.695,113.06060606060606,1403.6630036630036
1650546368882.811,113.12590239676581,1390.4761904761904
1650546368909.05,112.99538505912894,1378.7545787545787
1650546368910.157,113.06060606060606,1369.230769230769
1650546368935.56,113.06060606060606,1361.904761904762
1650546368935.8252,113.12590239676581,1355.3113553113553
1650546368936.433,112.99538505912894,1350.9157509157508
1650546368937.937,113.06060606060606,1345.7875457875457
1650546368946.416,113.06060606060606,1341.3919413919414
1650546368946.624,113.12590239676581,1338.4615384615383
1650546368972.821,113.06060606060606,1337.7289377289376
1650546368973.8792,113.12590239676581,1335.5311355311355
1650546368998.893,113.12590239676581,1335.5311355311355
1650546368999.054,113.12590239676581,1336.263736263736
1650546369000.2761,112.99538505912894,1336.263736263736
1650546369001.438,113.06060606060606,1334.065934065934
1650546369006.423,113.12590239676581,1334.7985347985348
1650546369006.5962,113.12590239676581,1336.263736263736
1650546369036.545,113.06060606060606,1341.3919413919414
1650546369037.62,113.06060606060606,1342.8571428571427
1650546369053.975,113.12590239676581,1343.5897435897434
1650546369054.2678,113.12590239676581,1345.054945054945
1650546369055.684,113.06060606060606,1347.985347985348
1650546369056.436,113.06060606060606,1350.18315018315
1650546369082.58,113.06060606060606,1351.6483516483515
1650546369082.7031,113.12590239676581,1353.8461538461538
1650546369083.9019,113.06060606060606,1358.2417582417581
1650546369108.851,113.06060606060606,1361.1721611721612
1650546369110.047,113.06060606060606,1362.6373626373625
1650546369110.165,113.12590239676581,1361.904761904762
1650546369125.637,113.06060606060606,1361.904761904762
1650546369126.4229,113.12590239676581,1360.4395604395604
1650546369151.339,113.12590239676581,1358.2417582417581
1650546369151.491,113.12590239676581,1354.5787545787546
1650546369152.679,113.06060606060606,1348.7179487179487
1650546369177.543,113.06060606060606,1345.054945054945
1650546369178.813,113.12590239676581,1344.3223443223442
1650546369178.921,113.06060606060606,1345.7875457875457
1650546369180.284,113.06060606060606,1347.2527472527472
1650546369181.684,113.06060606060606,1345.7875457875457
1650546369208.927,113.12590239676581,1343.5897435897434
1650546369209.1929,113.12590239676581,1341.3919413919414
1650546369210.198,113.06060606060606,1342.1245421245421
1650546369232.5781,113.12590239676581,1341.3919413919414
1650546369233.809,113.12590239676581,1340.6593406593406
1650546369233.927,113.19127419820862,1336.9963369963368
1650546369235.096,113.06060606060606,1335.5311355311355
1650546369249.306,113.12590239676581,1331.135531135531
1650546369274.225,113.12590239676581,1327.4725274725274
1650546369274.459,113.19127419820862,1326.007326007326
1650546369275.089,113.06060606060606,1326.007326007326
1650546369293.9019,113.12590239676581,1324.5421245421244
1650546369294.992,113.12590239676581,1323.076923076923
1650546369295.1428,113.19127419820862,1318.6813186813185
1650546369296.3728,113.12590239676581,1312.8205128205127
1650546369322.738,113.12590239676581,1304.7619047619046
1650546369323.7778,113.12590239676581,1295.970695970696
1650546369323.916,113.19127419820862,1289.3772893772893
1650546369350.468,113.06060606060606,1284.9816849816848
1650546369351.4841,113.12590239676581,1284.2490842490843
1650546369360.081,113.19127419820862,1285.7142857142856
1650546369360.282,113.19127419820862,1290.10989010989
1650546369361.374,113.06060606060606,1295.970695970696
1650546369386.394,113.12590239676581,1301.8315018315018
1650546369386.645,113.19127419820862,1305.4945054945053
1650546369387.6692,113.19127419820862,1309.89010989011
1650546369415.185,113.12590239676581,1312.8205128205127
1650546369416.723,113.12590239676581,1316.4835164835165
1650546369417.4658,113.19127419820862,1321.6117216117216
1650546369417.6172,113.25672159583695,1327.4725274725274
1650546369426.3179,113.12590239676581,1331.8681318681317
1650546369455.174,113.12590239676581,1337.7289377289376
1650546369456.2139,113.19127419820862,1345.7875457875457
1650546369456.3342,113.19127419820862,1358.974358974359
1650546369470.139,113.12590239676581,1379.4871794871794
1650546369471.145,113.19127419820862,1409.5238095238094
1650546369485.052,113.06060606060606,1446.153846153846
1650546369485.28,113.19127419820862,1490.10989010989
1650546369510.1162,113.12590239676581,1538.4615384615383
1650546369511.228,113.25672159583695,1589.0109890109889
1650546369511.344,113.12590239676581,1639.5604395604394
1650546369511.3909,113.19127419820862,1687.179487179487
1650546369532.572,113.12590239676581,1728.937728937729
1650546369533.683,113.19127419820862,1762.6373626373625
1650546369535.031,113.19127419820862,1786.8131868131868
1650546369535.347,113.25672159583695,1802.9304029304028
1650546369561.2979,113.12590239676581,1808.058608058608
1650546369562.546,113.19127419820862,1797.8021978021977
1650546369592.526,113.19127419820862,1776.5567765567764
1650546369593.004,113.25672159583695,1747.985347985348
1650546369593.806,113.12590239676581,1715.7509157509157
1650546369596.239,113.12590239676581,1680.5860805860805
1650546369605.191,113.25672159583695,1642.4908424908424
1650546369605.51,113.25672159583695,1602.9304029304028
1650546369630.147,113.19127419820862,1566.3003663003662
1650546369631.331,113.25672159583695,1529.6703296703295
1650546369653.707,113.19127419820862,1495.970695970696
1650546369653.838,113.25672159583695,1466.6666666666665
1650546369654.988,113.12590239676581,1441.7582417582416
1650546369656.159,113.19127419820862,1421.245421245421
1650546369665.055,113.25672159583695,1402.9304029304028
1650546369665.324,113.19127419820862,1391.9413919413919
1650546369693.886,113.19127419820862,1384.6153846153845
1650546369694.906,113.19127419820862,1380.2197802197802
1650546369694.993,113.25672159583695,1379.4871794871794
1650546369713.981,113.32224472085623,1379.4871794871794
1650546369714.978,113.19127419820862,1382.4175824175823
1650546369716.167,113.25672159583695,1384.6153846153845
1650546369742.506,113.25672159583695,1388.278388278388
1650546369742.734,113.19127419820862,1394.8717948717947
1650546369743.825,113.19127419820862,1402.197802197802
1650546369773.764,113.19127419820862,1407.3260073260071
1650546369773.8882,113.25672159583695,1413.1868131868132
1650546369775.022,113.25672159583695,1419.7802197802198
1650546369778.763,113.25672159583695,1427.8388278388277
1650546369779.8691,113.19127419820862,1437.3626373626373
1650546369806.23,113.25672159583695,1449.084249084249
1650546369806.4512,113.32224472085623,1460.8058608058607
1650546369807.576,113.19127419820862,1472.5274725274724
1650546369834.93,113.19127419820862,1484.9816849816848
1650546369835.133,113.25672159583695,1494.5054945054944
1650546369835.166,113.19127419820862,1501.8315018315018
1650546369835.1929,113.25672159583695,1503.2967032967033
1650546369838.687,113.25672159583695,1501.8315018315018
1650546369867.457,113.32224472085623,1498.9010989010987
1650546369867.5872,113.25672159583695,1493.7728937728937
1650546369868.722,113.25672159583695,1489.3772893772893
1650546369891.3,113.25672159583695,1482.051282051282
1650546369893.069,113.25672159583695,1473.260073260073
1650546369893.271,113.32224472085623,1462.2710622710622
1650546369893.6738,113.25672159583695,1450.5494505494505
1650546369902.38,113.25672159583695,1435.164835164835
1650546369927.347,113.25672159583695,1421.245421245421
1650546369927.501,113.32224472085623,1406.5934065934066
1650546369928.756,113.25672159583695,1394.8717948717947
1650546369954.8992,113.25672159583695,1386.080586080586
1650546369956.1418,113.32224472085623,1377.2893772893772
1650546369956.391,113.32224472085623,1370.6959706959706
1650546369959.955,113.19127419820862,1363.3699633699632
1650546369964.823,113.25672159583695,1356.7765567765566
1650546369996.1628,113.25672159583695,1350.9157509157508
1650546369996.386,113.32224472085623,1345.054945054945
1650546369998.026,113.25672159583695,1340.6593406593406
1650546370012.475,113.25672159583695,1341.3919413919414
1650546370013.602,113.32224472085623,1343.5897435897434
1650546370013.73,113.38784370477569,1345.7875457875457
1650546370014.931,113.25672159583695,1347.2527472527472
1650546370028.626,113.25672159583695,1346.5201465201465
1650546370028.806,113.38784370477569,1347.985347985348
1650546370055.0388,113.32224472085623,1349.4505494505493
1650546370056.179,113.25672159583695,1350.9157509157508
1650546370076.123,113.32224472085623,1350.9157509157508
1650546370076.3308,113.32224472085623,1350.18315018315
1650546370077.403,113.32224472085623,1350.18315018315
1650546370080.913,113.25672159583695,1351.6483516483515
1650546370108.5898,113.32224472085623,1350.9157509157508
1650546370108.731,113.32224472085623,1353.113553113553
1650546370109.882,113.32224472085623,1353.8461538461538
1650546370139.463,113.25672159583695,1353.8461538461538
1650546370140.09,113.32224472085623,1352.3809523809523
1650546370140.2,113.32224472085623,1350.18315018315
1650546370144.786,113.38784370477569,1348.7179487179487
1650546370144.947,113.25672159583695,1349.4505494505493
1650546370169.7769,113.32224472085623,1350.18315018315
1650546370169.928,113.38784370477569,1351.6483516483515
1650546370171.145,113.32224472085623,1353.113553113553
1650546370197.529,113.32224472085623,1353.113553113553
1650546370201.594,113.32224472085623,1350.9157509157508
1650546370201.781,113.38784370477569,1347.2527472527472
1650546370201.814,113.45351867940921,1342.8571428571427
1650546370201.842,113.32224472085623,1339.9267399267399
1650546370227.254,113.38784370477569,1336.263736263736
1650546370227.404,113.32224472085623,1331.135531135531
1650546370228.596,113.45351867940921,1326.007326007326
1650546370253.692,113.32224472085623,1321.6117216117216
1650546370254.8672,113.38784370477569,1317.216117216117
1650546370260.022,113.38784370477569,1313.5531135531135
1650546370260.226,113.38784370477569,1310.6227106227104
1650546370266.9429,113.32224472085623,1309.1575091575091
1650546370291.087,113.38784370477569,1309.1575091575091
1650546370291.311,113.38784370477569,1307.6923076923076
1650546370292.33,113.38784370477569,1307.6923076923076
1650546370311.271,113.25672159583695,1307.6923076923076
1650546370312.376,113.32224472085623,1306.9597069597069
1650546370321.0261,113.32224472085623,1302.5641025641025
1650546370321.172,113.45351867940921,1298.168498168498
1650546370346.104,113.32224472085623,1296.7032967032967
1650546370347.159,113.38784370477569,1298.168498168498
1650546370374.819,113.38784370477569,1301.098901098901
1650546370375.064,113.38784370477569,1305.4945054945053
1650546370382.617,113.38784370477569,1312.087912087912
1650546370383.6191,113.32224472085623,1320.14652014652
1650546370385.941,113.45351867940921,1325.2747252747251
1650546370386.051,113.45351867940921,1326.7399267399267
1650546370415.304,113.38784370477569,1328.937728937729
1650546370415.903,113.38784370477569,1330.4029304029302
1650546370439.657,113.38784370477569,1333.3333333333333
1650546370439.776,113.45351867940921,1335.5311355311355
1650546370441.102,113.32224472085623,1338.4615384615383
1650546370442.401,113.45351867940921,1341.3919413919414
1650546370443.565,113.38784370477569,1349.4505494505493
1650546370443.897,113.45351867940921,1362.6373626373625
1650546370471.12,113.38784370477569,1387.5457875457876
1650546370472.134,113.45351867940921,1417.5824175824175
1650546370489.733,113.38784370477569,1458.6080586080584
1650546370489.9531,113.45351867940921,1507.6923076923076
1650546370491.009,113.32224472085623,1564.102564102564
1650546370499.6582,113.38784370477569,1617.5824175824175
1650546370499.811,113.38784370477569,1667.3992673992673
1650546370531.0881,113.45351867940921,1710.6227106227104
1650546370532.2822,113.38784370477569,1747.2527472527472
1650546370550.914,113.32224472085623,1775.8241758241757
1650546370551.083,113.38784370477569,1792.6739926739926
1650546370552.17,113.45351867940921,1799.2673992673992
1650546370553.4019,113.38784370477569,1790.4761904761904
1650546370569.026,113.38784370477569,1771.4285714285713
1650546370569.199,113.38784370477569,1743.5897435897434
1650546370569.236,113.38784370477569,1711.3553113553112
1650546370596.415,113.38784370477569,1677.6556776556774
1650546370599.535,113.38784370477569,1641.0256410256409
1650546370620.387,113.38784370477569,1603.6630036630036
1650546370620.6318,113.45351867940921,1568.4981684981683
1650546370620.6912,113.38784370477569,1535.5311355311355
1650546370620.956,113.38784370477569,1502.5641025641025
1650546370645.935,113.45351867940921,1473.9926739926739
1650546370646.201,113.38784370477569,1452.7472527472526
1650546370647.2239,113.32224472085623,1434.4322344322343
1650546370672.249,113.38784370477569,1421.9780219780218
1650546370673.367,113.45351867940921,1413.9194139194137
1650546370673.594,113.45351867940921,1406.5934065934066
1650546370674.705,113.38784370477569,1402.9304029304028
1650546370688.5222,113.38784370477569,1397.8021978021977
1650546370714.652,113.32224472085623,1392.6739926739926
1650546370715.455,113.45351867940921,1387.5457875457876
1650546370715.936,113.38784370477569,1384.6153846153845
1650546370734.693,113.45351867940921,1380.2197802197802
1650546370736.125,113.45351867940921,1380.952380952381
1650546370736.314,113.51926977687627,1384.6153846153845
1650546370737.1719,113.45351867940921,1391.2087912087911
1650546370764.74,113.45351867940921,1398.5347985347985
1650546370765.777,113.32224472085623,1408.058608058608
1650546370765.925,113.51926977687627,1418.3150183150183
1650546370792.48,113.45351867940921,1431.5018315018315
1650546370793.316,113.45351867940921,1446.153846153846
1650546370798.571,113.45351867940921,1460.8058608058607
1650546370798.765,113.51926977687627,1473.260073260073
1650546370799.597,113.38784370477569,1484.2490842490843
1650546370828.458,113.45351867940921,1492.3076923076922
1650546370829.573,113.38784370477569,1497.4358974358972
1650546370829.721,113.51926977687627,1498.9010989010987
1650546370852.066,113.38784370477569,1496.7032967032967
1650546370852.322,113.45351867940921,1492.3076923076922
1650546370852.391,113.45351867940921,1484.2490842490843
1650546370853.386,113.45351867940921,1472.5274725274724
1650546370862.133,113.45351867940921,1457.142857142857
1650546370888.429,113.51926977687627,1440.2930402930401
1650546370889.653,113.45351867940921,1424.9084249084249
1650546370889.88,113.51926977687627,1411.7216117216117
1650546370912.323,113.45351867940921,1399.2673992673992
1650546370913.363,113.45351867940921,1386.080586080586
1650546370914.5378,113.51926977687627,1375.091575091575
1650546370914.795,113.51926977687627,1366.3003663003662
1650546370928.404,113.45351867940921,1360.4395604395604
1650546370954.606,113.51926977687627,1356.7765567765566
1650546370954.8992,113.45351867940921,1354.5787545787546
1650546370955.8599,113.58509712960279,1351.6483516483515
1650546370973.43,113.45351867940921,1351.6483516483515
1650546370974.4712,113.45351867940921,1349.4505494505493
1650546370975.7231,113.38784370477569,1349.4505494505493
1650546370975.883,113.58509712960279,1349.4505494505493
1650546371003.374,113.45351867940921,1350.18315018315
1650546371004.431,113.45351867940921,1350.18315018315
1650546371004.53,113.51926977687627,1349.4505494505493
1650546371032.0972,113.58509712960279,1349.4505494505493
1650546371033.322,113.45351867940921,1350.18315018315
1650546371037.021,113.45351867940921,1349.4505494505493
1650546371038.399,113.51926977687627,1347.2527472527472
1650546371038.602,113.51926977687627,1346.5201465201465
1650546371065.968,113.45351867940921,1343.5897435897434
1650546371066.921,113.51926977687627,1340.6593406593406
1650546371067.053,113.51926977687627,1338.4615384615383
1650546371090.8699,113.58509712960279,1338.4615384615383
1650546371092.0488,113.45351867940921,1340.6593406593406
1650546371093.333,113.51926977687627,1342.8571428571427
1650546371101.948,113.51926977687627,1344.3223443223442
1650546371102.074,113.58509712960279,1344.3223443223442
1650546371127.407,113.45351867940921,1345.7875457875457
1650546371128.3,113.51926977687627,1343.5897435897434
1650546371154.4858,113.58509712960279,1339.194139194139
1650546371154.743,113.58509712960279,1335.5311355311355
1650546371155.794,113.45351867940921,1333.3333333333333
1650546371161.937,113.51926977687627,1330.4029304029302
1650546371163.1948,113.51926977687627,1328.937728937729
1650546371163.2942,113.58509712960279,1329.6703296703297
1650546371190.1482,113.51926977687627,1329.6703296703297
1650546371190.746,113.51926977687627,1328.2051282051282
1650546371190.899,113.58509712960279,1323.8095238095236
1650546371195.8662,113.58509712960279,1320.8791208791208
1650546371215.855,113.45351867940921,1320.14652014652
1650546371224.397,113.45351867940921,1320.8791208791208
1650546371224.518,113.58509712960279,1321.6117216117216
1650546371249.651,113.58509712960279,1320.8791208791208
1650546371250.657,113.51926977687627,1321.6117216117216
1650546371250.79,113.51926977687627,1323.076923076923
1650546371250.822,113.58509712960279,1323.8095238095236
1650546371275.877,113.58509712960279,1323.076923076923
1650546371276.9822,113.51926977687627,1323.076923076923
1650546371278.188,113.51926977687627,1320.8791208791208
1650546371303.178,113.58509712960279,1318.6813186813185
1650546371303.305,113.45351867940921,1317.9487179487178
1650546371304.456,113.51926977687627,1315.7509157509157
1650546371329.598,113.51926977687627,1312.8205128205127
1650546371329.904,113.58509712960279,1312.087912087912
1650546371330.6921,113.58509712960279,1309.1575091575091
1650546371338.202,113.51926977687627,1306.227106227106
1650546371339.33,113.51926977687627,1303.2967032967033
1650546371364.348,113.45351867940921,1303.2967032967033
1650546371364.499,113.51926977687627,1300.3663003663003
1650546371365.757,113.51926977687627,1298.168498168498
1650546371392.119,113.51926977687627,1296.7032967032967
1650546371393.141,113.58509712960279,1295.2380952380952
1650546371393.3452,113.58509712960279,1293.040293040293
1650546371394.455,113.51926977687627,1292.3076923076922
1650546371421.843,113.58509712960279,1291.5750915750914
1650546371423.09,113.45351867940921,1291.5750915750914
1650546371423.2249,113.51926977687627,1293.040293040293
1650546371448.25,113.45351867940921,1295.970695970696
1650546371449.6428,113.51926977687627,1298.9010989010987
1650546371450.081,113.51926977687627,1304.7619047619046
1650546371460.708,113.58509712960279,1311.3553113553112
1650546371461.883,113.58509712960279,1316.4835164835165
1650546371463.1519,113.51926977687627,1320.8791208791208
1650546371493.153,113.58509712960279,1328.937728937729
1650546371493.366,113.58509712960279,1347.2527472527472
1650546371494.4,113.51926977687627,1372.8937728937728
1650546371513.279,113.51926977687627,1407.3260073260071
1650546371514.245,113.58509712960279,1448.3516483516482
1650546371514.375,113.45351867940921,1497.4358974358972
1650546371515.633,113.51926977687627,1548.7179487179485
1650546371543.1099,113.51926977687627,1602.9304029304028
1650546371544.337,113.58509712960279,1658.6080586080584
1650546371569.405,113.58509712960279,1709.1575091575091
1650546371570.576,113.51926977687627,1753.113553113553
1650546371579.501,113.51926977687627,1789.7435897435896
1650546371580.546,113.51926977687627,1817.5824175824175
1650546371580.6821,113.58509712960279,1835.164835164835
1650546371581.832,113.45351867940921,1839.5604395604394
1650546371609.264,113.58509712960279,1830.03663003663
1650546371610.532,113.51926977687627,1810.2564102564102
1650546371610.7559,113.58509712960279,1780.9523809523807
1650546371633.1091,113.51926977687627,1745.054945054945
1650546371634.1792,113.51926977687627,1703.296703296703
1650546371634.274,113.58509712960279,1660.8058608058607
1650546371635.636,113.65100087032202,1620.5128205128203
1650546371644.403,113.51926977687627,1582.4175824175823
1650546371669.2659,113.51926977687627,1546.5201465201465
1650546371669.394,113.58509712960279,1513.5531135531135
1650546371670.524,113.65100087032202,1484.2490842490843
1650546371695.581,113.51926977687627,1460.8058608058607
1650546371696.877,113.58509712960279,1441.7582417582416
1650546371698.032,113.58509712960279,1427.106227106227
1650546371698.22,113.65100087032202,1413.9194139194137
1650546371707.0269,113.58509712960279,1405.8608058608058
1650546371733.0042,113.58509712960279,1399.2673992673992
1650546371734.196,113.65100087032202,1396.3369963369962
1650546371734.387,113.58509712960279,1397.069597069597
1650546371751.909,113.51926977687627,1401.4652014652013
1650546371753.057,113.58509712960279,1405.128205128205
1650546371754.226,113.65100087032202,1410.2564102564102
1650546371754.4402,113.65100087032202,1414.6520146520145
1650546371768.032,113.58509712960279,1420.5128205128203
1650546371797.6028,113.58509712960279,1423.4432234432234
1650546371817.96,113.58509712960279,1427.106227106227
1650546371818.0972,113.65100087032202,1432.9670329670328
1650546371819.318,113.58509712960279,1441.0256410256409
1650546371820.698,113.51926977687627,1446.153846153846
1650546371821.8,113.58509712960279,1452.7472527472526
1650546371822.0469,113.65100087032202,1458.6080586080584
1650546371852.987,113.51926977687627,1465.201465201465
1650546371854.1418,113.58509712960279,1468.131868131868
1650546371871.795,113.65100087032202,1473.9926739926739
1650546371871.9312,113.65100087032202,1476.923076923077
1650546371873.006,113.58509712960279,1482.7838827838827
1650546371879.2852,113.65100087032202,1483.5164835164835
1650546371904.199,113.65100087032202,1482.051282051282
1650546371904.4458,113.65100087032202,1478.3882783882782
1650546371905.52,113.58509712960279,1471.7948717948716
1650546371931.607,113.65100087032202,1462.2710622710622
1650546371931.7998,113.58509712960279,1451.2820512820513
1650546371933.054,113.65100087032202,1441.0256410256409
1650546371934.173,113.58509712960279,1432.2344322344322
1650546371935.334,113.58509712960279,1421.9780219780218
1650546371935.452,113.65100087032202,1412.4542124542124
1650546371974.295,113.65100087032202,1404.3956043956043
1650546371975.565,113.58509712960279,1396.3369963369962
1650546371995.392,113.58509712960279,1390.4761904761904
1650546371996.7092,113.65100087032202,1385.3479853479853
1650546371996.907,113.65100087032202,1377.2893772893772
1650546371999.062,113.58509712960279,1369.230769230769
1650546371999.439,113.58509712960279,1359.7069597069597
1650546371999.5571,113.65100087032202,1351.6483516483515
1650546372031.7048,113.71698113207547,1343.5897435897434
1650546372032.8691,113.65100087032202,1338.4615384615383
1650546372051.023,113.58509712960279,1333.3333333333333
1650546372051.25,113.65100087032202,1329.6703296703297
1650546372051.371,113.65100087032202,1324.5421245421244
1650546372051.646,113.65100087032202,1321.6117216117216
1650546372060.467,113.65100087032202,1318.6813186813185
1650546372066.61,113.58509712960279,1319.4139194139193
1650546372066.8071,113.65100087032202,1317.9487179487178
1650546372099.232,113.58509712960279,1319.4139194139193
1650546372100.2942,113.65100087032202,1320.14652014652
1650546372110.2852,113.65100087032202,1321.6117216117216
1650546372110.431,113.71698113207547,1326.007326007326
1650546372111.624,113.58509712960279,1330.4029304029302
1650546372125.349,113.65100087032202,1333.3333333333333
1650546372125.566,113.58509712960279,1335.5311355311355
1650546372160.469,113.65100087032202,1337.7289377289376
1650546372161.656,113.58509712960279,1341.3919413919414
1650546372167.834,113.58509712960279,1342.1245421245421
1650546372168.997,113.65100087032202,1343.5897435897434
1650546372169.143,113.71698113207547,1344.3223443223442
1650546372170.474,113.58509712960279,1346.5201465201465
1650546372184.208,113.58509712960279,1348.7179487179487
1650546372211.502,113.71698113207547,1347.985347985348
1650546372211.688,113.71698113207547,1345.7875457875457
1650546372213.5652,113.65100087032202,1345.054945054945
1650546372233.981,113.65100087032202,1343.5897435897434
1650546372235.1602,113.71698113207547,1340.6593406593406
1650546372235.231,113.58509712960279,1336.9963369963368
1650546372236.513,113.65100087032202,1331.135531135531
1650546372264.1858,113.65100087032202,1326.007326007326
1650546372265.2021,113.58509712960279,1319.4139194139193
1650546372265.3452,113.71698113207547,1313.5531135531135
1650546372290.3408,113.58509712960279,1307.6923076923076
1650546372293.989,113.58509712960279,1301.098901098901
1650546372294.193,113.65100087032202,1296.7032967032967
1650546372297.853,113.65100087032202,1290.10989010989
1650546372299.0679,113.65100087032202,1283.5164835164835
1650546372324.122,113.71698113207547,1276.1904761904761
1650546372324.478,113.58509712960279,1272.5274725274724
1650546372325.397,113.71698113207547,1272.5274725274724
1650546372350.405,113.65100087032202,1277.6556776556777
1650546372351.43,113.65100087032202,1284.2490842490843
1650546372360.1938,113.71698113207547,1292.3076923076922
1650546372360.317,113.71698113207547,1297.4358974358975
1650546372361.659,113.65100087032202,1301.098901098901
1650546372389.015,113.65100087032202,1301.098901098901
1650546372389.239,113.58509712960279,1301.098901098901
1650546372390.3,113.65100087032202,1298.168498168498
1650546372415.267,113.65100087032202,1293.040293040293
1650546372416.403,113.65100087032202,1287.179487179487
1650546372416.533,113.65100087032202,1284.2490842490843
1650546372417.742,113.78303804821377,1280.5860805860805
1650546372418.958,113.58509712960279,1281.3186813186812
1650546372444.119,113.65100087032202,1282.051282051282
1650546372445.129,113.71698113207547,1284.9816849816848
1650546372445.281,113.78303804821377,1286.4468864468863
1650546372471.581,113.65100087032202,1292.3076923076922
1650546372472.7222,113.65100087032202,1294.5054945054944
1650546372473.9001,113.71698113207547,1298.168498168498
1650546372474.0369,113.71698113207547,1299.6336996336995
1650546372487.832,113.65100087032202,1300.3663003663003
1650546372512.75,113.71698113207547,1298.168498168498
1650546372513.905,113.71698113207547,1294.5054945054944
1650546372514.083,113.71698113207547,1288.6446886446886
1650546372539.115,113.65100087032202,1284.9816849816848
1650546372540.121,113.65100087032202,1283.5164835164835
1650546372541.2742,113.71698113207547,1287.179487179487
1650546372541.359,113.78303804821377,1293.7728937728937
1650546372569.6052,113.65100087032202,1308.4249084249084
1650546372569.798,113.71698113207547,1331.135531135531
1650546372587.923,113.71698113207547,1361.1721611721612
1650546372588.099,113.78303804821377,1397.8021978021977
1650546372588.9102,113.71698113207547,1443.956043956044
1650546372590.2122,113.65100087032202,1494.5054945054944
1650546372605.159,113.71698113207547,1547.985347985348
1650546372605.4128,113.71698113207547,1603.6630036630036
1650546372632.604,113.71698113207547,1654.9450549450548
1650546372632.7332,113.65100087032202,1703.296703296703
1650546372632.7678,113.71698113207547,1745.7875457875457
1650546372651.405,113.78303804821377,1779.4871794871794
1650546372652.589,113.65100087032202,1802.9304029304028
1650546372653.765,113.65100087032202,1810.2564102564102
1650546372667.711,113.71698113207547,1805.8608058608058
1650546372667.958,113.78303804821377,1789.7435897435896
1650546372693.896,113.65100087032202,1769.230769230769
1650546372695.218,113.71698113207547,1737.7289377289376
1650546372712.666,113.71698113207547,1701.098901098901
1650546372712.834,113.78303804821377,1657.8754578754579
1650546372713.891,113.65100087032202,1613.9194139194137
1650546372715.056,113.71698113207547,1568.4981684981683
1650546372751.2551,113.78303804821377,1526.007326007326
1650546372751.396,113.71698113207547,1487.179487179487
1650546372752.64,113.71698113207547,1454.9450549450548
1650546372775.099,113.71698113207547,1429.3040293040292
1650546372775.3652,113.78303804821377,1409.5238095238094
1650546372776.436,113.78303804821377,1395.6043956043954
1650546372778.176,113.71698113207547,1387.5457875457876
1650546372778.755,113.71698113207547,1383.8827838827838
1650546372804.965,113.71698113207547,1382.4175824175823
1650546372805.104,113.78303804821377,1378.7545787545787
1650546372806.293,113.65100087032202,1374.3589743589744
1650546372832.651,113.78303804821377,1369.9633699633698
1650546372833.914,113.78303804821377,1369.230769230769
1650546372834.158,113.71698113207547,1372.8937728937728
1650546372838.9949,113.71698113207547,1378.021978021978
1650546372840.054,113.71698113207547,1385.3479853479853
1650546372867.5398,113.78303804821377,1394.139194139194
1650546372867.7039,113.84917175239757,1402.9304029304028
1650546372868.843,113.71698113207547,1413.1868131868132
1650546372889.941,113.71698113207547,1423.4432234432234
1650546372890.1118,113.78303804821377,1433.6996336996335
1650546372891.566,113.65100087032202,1443.956043956044
1650546372892.56,113.71698113207547,1451.2820512820513
1650546372903.754,113.71698113207547,1454.9450549450548
1650546372932.529,113.65100087032202,1461.5384615384614
1650546372932.7468,113.78303804821377,1465.9340659340658
1650546372933.79,113.71698113207547,1470.3296703296703
1650546372955.149,113.71698113207547,1470.3296703296703
1650546372956.165,113.78303804821377,1468.131868131868
1650546372956.327,113.84917175239757,1462.2710622710622
1650546372957.593,113.71698113207547,1452.7472527472526
1650546372966.195,113.65100087032202,1440.2930402930401
1650546372994.996,113.71698113207547,1427.106227106227
1650546372995.2568,113.78303804821377,1416.8498168498168
1650546372996.263,113.71698113207547,1407.3260073260071
1650546373015.1318,113.71698113207547,1396.3369963369962
1650546373016.1099,113.78303804821377,1386.080586080586
1650546373016.2302,113.78303804821377,1374.3589743589744
1650546373017.541,113.71698113207547,1365.5677655677655
1650546373043.681,113.71698113207547,1357.5091575091574
1650546373044.822,113.71698113207547,1353.113553113553
1650546373044.954,113.78303804821377,1349.4505494505493
1650546373070.2668,113.78303804821377,1343.5897435897434
1650546373071.2432,113.78303804821377,1337.7289377289376
1650546373076.201,113.71698113207547,1331.8681318681317
1650546373076.4092,113.78303804821377,1328.2051282051282
1650546373085.291,113.78303804821377,1327.4725274725274
1650546373111.205,113.71698113207547,1324.5421245421244
1650546373111.4211,113.84917175239757,1320.14652014652
1650546373112.437,113.78303804821377,1316.4835164835165
1650546373134.927,113.71698113207547,1314.2857142857142
1650546373136.219,113.71698113207547,1312.087912087912
1650546373137.425,113.71698113207547,1312.087912087912
1650546373137.845,113.84917175239757,1311.3553113553112
1650546373138.645,113.71698113207547,1312.087912087912
1650546373163.6519,113.71698113207547,1309.89010989011
1650546373163.915,113.78303804821377,1309.89010989011
1650546373164.9302,113.78303804821377,1310.6227106227104
1650546373189.966,113.71698113207547,1312.087912087912
1650546373191.201,113.78303804821377,1311.3553113553112
1650546373198.642,113.84917175239757,1312.8205128205127
1650546373198.869,113.84917175239757,1312.8205128205127
1650546373199.922,113.78303804821377,1314.2857142857142
1650546373231.415,113.71698113207547,1313.5531135531135
1650546373231.664,113.84917175239757,1313.5531135531135
1650546373232.43,113.78303804821377,1315.7509157509157
1650546373256.119,113.78303804821377,1317.9487179487178
1650546373257.3591,113.71698113207547,1318.6813186813185
1650546373258.499,113.78303804821377,1317.216117216117
1650546373258.6182,113.84917175239757,1316.4835164835165
1650546373267.5059,113.71698113207547,1316.4835164835165
1650546373293.78,113.78303804821377,1315.7509157509157
1650546373312.481,113.78303804821377,1314.2857142857142
1650546373312.7861,113.78303804821377,1310.6227106227104
1650546373313.711,113.65100087032202,1308.4249084249084
1650546373314.84,113.78303804821377,1303.2967032967033
1650546373316.0132,113.84917175239757,1299.6336996336995
1650546373316.16,113.84917175239757,1297.4358974358975
1650546373341.671,113.78303804821377,1295.970695970696
1650546373342.229,113.78303804821377,1293.7728937728937
1650546373342.28,113.78303804821377,1291.5750915750914
1650546373368.691,113.84917175239757,1288.6446886446886
1650546373369.8298,113.78303804821377,1284.9816849816848
1650546373379.848,113.78303804821377,1279.8534798534797
1650546373381.2349,113.84917175239757,1276.1904761904761
1650546373381.4211,113.71698113207547,1276.1904761904761
1650546373407.5698,113.78303804821377,1276.1904761904761
1650546373408.998,113.78303804821377,1276.923076923077
1650546373432.389,113.78303804821377,1278.3882783882782
1650546373432.641,113.78303804821377,1278.3882783882782
1650546373433.5479,113.78303804821377,1277.6556776556777
1650546373434.791,113.78303804821377,1273.260073260073
1650546373443.445,113.84917175239757,1271.062271062271
1650546373443.5881,113.84917175239757,1268.131868131868
1650546373481.0,113.78303804821377,1268.8644688644688
1650546373482.2231,113.78303804821377,1268.8644688644688
1650546373487.366,113.84917175239757,1268.131868131868
1650546373487.614,113.84917175239757,1268.131868131868
1650546373488.561,113.78303804821377,1270.3296703296703
1650546373499.856,113.84917175239757,1271.062271062271
1650546373505.929,113.78303804821377,1275.4578754578754
1650546373506.1199,113.78303804821377,1278.3882783882782
1650546373534.838,113.78303804821377,1279.8534798534797
1650546373535.989,113.78303804821377,1278.3882783882782
1650546373536.169,113.84917175239757,1276.923076923077
1650546373553.6958,113.84917175239757,1274.7252747252746
1650546373554.749,113.78303804821377,1273.9926739926739
1650546373564.496,113.78303804821377,1276.1904761904761
1650546373564.666,113.84917175239757,1284.9816849816848
1650546373589.823,113.78303804821377,1297.4358974358975
1650546373591.178,113.78303804821377,1317.9487179487178
1650546373612.105,113.84917175239757,1346.5201465201465
1650546373613.478,113.84917175239757,1383.8827838827838
1650546373613.7349,113.84917175239757,1425.6410256410256
1650546373614.6729,113.78303804821377,1474.7252747252746
1650546373623.626,113.84917175239757,1526.007326007326
1650546373650.908,113.84917175239757,1578.7545787545787
1650546373651.151,113.78303804821377,1629.3040293040292
1650546373652.189,113.78303804821377,1673.9926739926739
1650546373670.852,113.78303804821377,1710.6227106227104
1650546373671.046,113.84917175239757,1737.7289377289376
1650546373672.148,113.91538237859844,1748.7179487179485
1650546373673.402,113.78303804821377,1747.985347985348
1650546373682.127,113.84917175239757,1731.8681318681317
1650546373711.0332,113.78303804821377,1710.6227106227104
1650546373711.277,113.78303804821377,1680.5860805860805
1650546373712.116,113.78303804821377,1646.153846153846
1650546373732.172,113.84917175239757,1608.058608058608
1650546373732.366,113.84917175239757,1569.230769230769
1650546373733.355,113.78303804821377,1533.3333333333333
1650546373734.589,113.78303804821377,1498.168498168498
1650546373759.5898,113.84917175239757,1465.201465201465
1650546373759.8628,113.84917175239757,1434.4322344322343
1650546373760.883,113.84917175239757,1407.3260073260071
1650546373787.157,113.78303804821377,1384.6153846153845
1650546373788.3552,113.84917175239757,1366.3003663003662
1650546373788.592,113.84917175239757,1353.8461538461538
1650546373799.5378,113.91538237859844,1345.054945054945
1650546373799.7341,113.84917175239757,1340.6593406593406
1650546373827.1648,113.84917175239757,1336.263736263736
1650546373827.392,113.84917175239757,1333.3333333333333
1650546373828.408,113.84917175239757,1331.135531135531
1650546373847.0981,113.78303804821377,1330.4029304029302
1650546373848.1592,113.84917175239757,1328.937728937729
1650546373848.258,113.91538237859844,1328.937728937729
1650546373849.677,113.84917175239757,1327.4725274725274
1650546373864.6182,113.84917175239757,1328.937728937729
1650546373890.873,113.84917175239757,1335.5311355311355
1650546373891.124,113.84917175239757,1348.7179487179487
1650546373892.096,113.84917175239757,1367.032967032967
1650546373917.197,113.84917175239757,1382.4175824175823
1650546373918.245,113.91538237859844,1397.8021978021977
1650546373919.461,113.78303804821377,1409.5238095238094
1650546373919.636,113.84917175239757,1420.5128205128203
1650546373921.555,113.84917175239757,1427.8388278388277
1650546373948.407,113.91538237859844,1433.6996336996335
1650546373949.92,113.84917175239757,1439.5604395604394
1650546373950.176,113.91538237859844,1441.7582417582416
1650546373965.793,113.84917175239757,1441.7582417582416
1650546373967.0378,113.91538237859844,1439.5604395604394
1650546373975.873,113.91538237859844,1435.8974358974358
1650546373976.327,113.91538237859844,1428.5714285714284
1650546373987.961,113.78303804821377,1418.3150183150183
