Timestamp,GSR,PPG
1650546154888.96,124.99544419134398,0.0
1650546154889.953,124.99544419134398,0.0
1650546154919.92,124.99544419134398,0.0
1650546154921.153,124.99544419134398,0.0
1650546154921.419,124.99544419134398,0.0
1650546154936.162,124.99544419134398,0.0
1650546154937.377,124.99544419134398,0.0
1650546154938.569,124.99544419134398,0.0
1650546154952.525,129.8491879350348,0.0
1650546154952.7358,129.93532338308458,0.0
1650546154977.5469,129.8491879350348,0.0
1650546154978.7559,129.93532338308458,0.0
1650546155002.472,129.93532338308458,0.0
1650546155002.6528,130.10793756227167,0.0
1650546155003.7961,129.93532338308458,0.0
1650546155004.93,130.10793756227167,0.0
1650546155013.833,130.10793756227167,0.0
1650546155014.191,130.19441674975073,0.0
1650546155038.92,130.19441674975073,0.0
1650546155040.127,130.10793756227167,0.0
1650546155061.406,130.19441674975073,0.0
1650546155061.645,130.28101097439307,0.0
1650546155062.68,130.19441674975073,0.0
1650546155063.937,130.28101097439307,0.0
1650546155095.335,130.36772046589016,0.0
1650546155095.533,130.28101097439307,0.0
1650546155096.486,130.28101097439307,0.0
1650546155121.5479,130.36772046589016,0.0
1650546155122.8162,130.45454545454544,0.0
1650546155122.953,130.36772046589016,0.0
1650546155125.324,130.45454545454544,0.0
1650546155126.46,130.45454545454544,0.0
1650546155151.85,130.54148617127623,0.0
1650546155152.2878,130.54148617127623,0.0
1650546155152.9329,130.54148617127623,0.0
1650546155180.705,130.54148617127623,0.0
1650546155181.824,130.62854284761585,0.0
1650546155182.2158,130.62854284761585,0.0
1650546155186.7722,130.54148617127623,0.0
1650546155221.721,130.62854284761585,0.0
1650546155221.977,130.54148617127623,0.0
1650546155222.21,130.7157157157157,0.0
1650546155241.89,130.7157157157157,0.0
1650546155242.992,130.62854284761585,0.0
1650546155243.1382,130.80300500834724,0.0
1650546155244.3792,130.80300500834724,0.0
1650546155245.624,130.7157157157157,0.0
1650546155254.343,130.7157157157157,0.0
1650546155285.755,130.7157157157157,0.0
1650546155285.877,130.80300500834724,0.0
1650546155286.968,130.80300500834724,0.0
1650546155295.625,130.80300500834724,0.0
1650546155295.731,130.89041095890408,0.0
1650546155297.093,130.9779338014042,0.0
1650546155310.8152,130.89041095890408,0.0
1650546155311.92,130.9779338014042,0.0
1650546155345.8828,130.9779338014042,0.0
1650546155346.055,130.9779338014042,0.0
1650546155347.108,130.89041095890408,0.0
1650546155353.396,130.9779338014042,0.0
1650546155354.514,131.0655737704918,0.0
1650546155354.773,130.9779338014042,0.0
1650546155368.518,130.9779338014042,0.0
1650546155393.395,130.9779338014042,0.0
1650546155393.583,131.0655737704918,0.0
1650546155394.716,131.0655737704918,0.0
1650546155416.045,130.9779338014042,0.0
1650546155417.1528,131.0655737704918,0.0
1650546155417.311,131.0655737704918,0.0
1650546155418.53,131.15333110143956,0.0
1650546155432.344,130.9779338014042,0.0
1650546155462.3179,131.15333110143956,0.0
1650546155463.63,131.0655737704918,0.0
1650546155463.79,131.24120603015078,0.0
1650546155482.594,131.15333110143956,0.0
1650546155483.787,131.15333110143956,0.0
1650546155484.8362,131.0655737704918,0.0
1650546155484.988,131.24120603015078,0.0
1650546155512.5452,131.15333110143956,0.0
1650546155513.651,131.24120603015078,0.0
1650546155513.8271,131.32919879316125,0.0
1650546155537.588,131.32919879316125,0.0
1650546155538.814,131.24120603015078,0.0
1650546155540.055,131.24120603015078,0.0
1650546155545.035,131.32919879316125,0.0
1650546155545.248,131.32919879316125,0.0
1650546155570.1548,131.24120603015078,0.0
1650546155571.462,131.32919879316125,0.0
1650546155571.733,131.32919879316125,0.0
1650546155599.051,131.32919879316125,0.0
1650546155600.1128,131.32919879316125,0.0
1650546155600.249,131.32919879316125,0.0
1650546155600.3562,131.32919879316125,0.0
1650546155610.26,131.41730962764174,0.0
1650546155641.5762,131.32919879316125,0.0
1650546155643.1428,131.41730962764174,0.0
1650546155654.0898,131.41730962764174,0.0
1650546155654.2612,131.41730962764174,0.0
1650546155655.324,131.41730962764174,0.0
1650546155659.076,131.5055387713998,0.0
1650546155672.828,131.41730962764174,0.0
1650546155673.0671,131.32919879316125,0.0
1650546155697.9412,131.41730962764174,0.0
1650546155699.075,131.5055387713998,0.0
1650546155724.356,131.5055387713998,0.0
1650546155724.556,131.5055387713998,0.0
1650546155725.613,131.41730962764174,0.0
1650546155726.851,131.5055387713998,0.0
1650546155735.439,131.5055387713998,0.0
1650546155735.617,131.5938864628821,0.0
1650546155762.084,131.41730962764174,0.0
1650546155763.0889,131.5055387713998,0.0
1650546155780.672,131.5938864628821,0.0
1650546155780.8582,131.5938864628821,0.0
1650546155781.948,131.5055387713998,0.0
1650546155783.125,131.5938864628821,0.0
1650546155796.813,131.5938864628821,0.0
1650546155796.983,131.5938864628821,0.0
1650546155822.104,131.5938864628821,0.0
1650546155823.251,131.5938864628821,0.0
1650546155846.9492,131.5938864628821,0.0
1650546155847.132,131.68235294117648,0.0
1650546155848.276,131.5938864628821,0.0
1650546155849.514,131.68235294117648,0.0
1650546155877.0708,131.5938864628821,0.0
1650546155877.2622,131.68235294117648,0.0
1650546155878.4932,131.5938864628821,0.0
1650546155901.236,131.68235294117648,0.0
1650546155901.543,131.68235294117648,0.0
1650546155902.313,131.5938864628821,0.0
1650546155903.411,131.5938864628821,0.0
1650546155912.2168,131.68235294117648,0.0
1650546155937.292,131.5055387713998,0.0
1650546155937.664,131.68235294117648,0.0
1650546155938.6138,131.5938864628821,0.0
1650546155960.959,131.5938864628821,0.0
1650546155961.141,131.68235294117648,0.0
1650546155962.269,131.68235294117648,0.0
1650546155963.521,131.5055387713998,0.0
1650546155977.297,131.5055387713998,0.0
1650546155977.648,131.5055387713998,0.0
1650546156006.18,131.5055387713998,0.0
1650546156007.4402,131.41730962764174,0.0
1650546156022.5251,131.32919879316125,0.0
1650546156023.724,131.24120603015078,0.0
1650546156023.911,131.24120603015078,0.0
1650546156024.923,131.0655737704918,0.0
1650546156072.593,130.9779338014042,0.0
1650546156073.7988,130.9779338014042,0.0
1650546156074.11,130.9779338014042,0.0
1650546156075.033,130.89041095890408,0.0
1650546156079.9812,130.89041095890408,0.0
1650546156080.157,130.9779338014042,0.0
1650546156088.809,130.89041095890408,0.0
1650546156090.116,130.80300500834724,0.0
1650546156115.0361,130.89041095890408,0.0
1650546156116.3599,130.80300500834724,0.0
1650546156116.463,130.89041095890408,0.0
1650546156142.7668,130.80300500834724,0.0
1650546156143.865,130.80300500834724,0.0
1650546156147.7102,130.80300500834724,0.0
1650546156147.825,130.80300500834724,0.0
1650546156148.9001,130.62854284761585,0.0
1650546156174.1208,130.7157157157157,0.0
1650546156175.256,130.7157157157157,0.0
1650546156175.507,130.80300500834724,0.0
1650546156200.337,130.62854284761585,0.0
1650546156201.427,130.7157157157157,0.0
1650546156201.591,130.7157157157157,0.0
1650546156204.0789,130.7157157157157,0.0
1650546156217.96,130.54148617127623,0.0
1650546156242.81,130.62854284761585,0.0
1650546156242.9968,130.62854284761585,0.0
1650546156244.163,130.7157157157157,0.0
1650546156262.974,130.62854284761585,0.0
1650546156264.076,130.54148617127623,0.0
1650546156265.433,130.62854284761585,0.0
1650546156265.6008,130.7157157157157,0.0
1650546156290.514,130.62854284761585,0.0
1650546156291.728,130.54148617127623,0.0
1650546156317.0,130.62854284761585,0.0
1650546156317.251,130.62854284761585,0.0
1650546156318.0708,130.45454545454544,0.0
1650546156329.228,130.62854284761585,0.0
1650546156330.58,130.62854284761585,0.0
1650546156330.7432,130.62854284761585,0.0
1650546156356.929,130.62854284761585,0.0
1650546156358.02,130.62854284761585,0.0
1650546156358.1729,130.7157157157157,0.0
1650546156384.49,130.80300500834724,0.0
1650546156386.013,130.7157157157157,0.0
1650546156386.88,130.80300500834724,0.0
1650546156387.062,130.89041095890408,0.0
1650546156388.198,130.9779338014042,0.0
1650546156419.54,130.89041095890408,0.0
1650546156420.766,131.0655737704918,0.0
1650546156438.2651,131.15333110143956,0.0
1650546156438.52,131.15333110143956,0.0
1650546156439.719,131.0655737704918,0.0
1650546156440.682,131.24120603015078,0.0
1650546156455.912,131.15333110143956,0.0
1650546156456.12,131.15333110143956,0.0
1650546156485.943,131.0655737704918,0.0
1650546156487.152,131.15333110143956,0.0
1650546156498.373,131.24120603015078,0.0
1650546156498.647,131.24120603015078,0.0
1650546156499.703,131.0655737704918,0.0
1650546156505.879,131.15333110143956,0.0
1650546156537.3162,131.15333110143956,0.0
1650546156537.521,131.15333110143956,0.0
1650546156538.523,131.0655737704918,0.0
1650546156564.881,131.0655737704918,0.0
1650546156566.139,131.15333110143956,0.0
1650546156566.445,131.15333110143956,0.0
1650546156566.57,131.0655737704918,0.0
1650546156568.506,131.15333110143956,0.0
1650546156598.775,131.15333110143956,0.0
1650546156599.063,131.0655737704918,0.0
1650546156601.0488,130.9779338014042,0.0
1650546156621.208,131.15333110143956,0.0
1650546156622.4111,131.0655737704918,0.0
1650546156622.701,130.9779338014042,0.0
1650546156623.7742,131.0655737704918,0.0
1650546156632.445,131.15333110143956,0.0
1650546156632.7058,130.9779338014042,0.0
1650546156658.793,131.0655737704918,0.0
1650546156660.025,131.0655737704918,0.0
1650546156688.742,131.0655737704918,0.0
1650546156688.9229,131.0655737704918,0.0
1650546156690.0872,131.0655737704918,0.0
1650546156691.324,131.15333110143956,0.0
1650546156692.465,131.15333110143956,0.0
1650546156718.1,131.32919879316125,0.0
1650546156718.379,131.41730962764174,0.0
1650546156719.0781,131.5055387713998,0.0
1650546156741.486,131.68235294117648,0.0
1650546156742.583,131.77093844601413,0.0
1650546156742.734,131.9484674974739,0.0
1650546156743.9402,131.8596432177718,0.0
1650546156757.695,132.03741152679476,0.0
1650546156757.874,132.21565980425245,0.0
1650546156784.069,132.3049645390071,0.0
1650546156785.2932,132.3049645390071,0.0
1650546156802.87,132.4839364220494,0.0
1650546156803.123,132.6633931594988,0.0
1650546156804.1438,132.75330396475772,0.0
1650546156810.4539,132.84333672431333,0.0
1650546156819.222,132.93349168646083,0.0
1650546156851.761,133.02376910016977,0.0
1650546156852.0042,133.2046922815369,0.0
1650546156853.023,133.11416921508666,0.0
1650546156869.3088,133.2953385505274,0.0
1650546156870.485,133.38610827374873,0.0
1650546156870.682,133.56801909307876,0.0
1650546156871.785,133.6591606960082,0.0
1650546156901.8518,133.75042676681463,0.0
1650546156902.0269,133.93333333333334,0.0
1650546156903.1,134.02497434143004,0.0
1650546156919.53,133.93333333333334,0.0
1650546156920.583,134.20863309352518,0.0
1650546156920.888,134.3927958833619,0.0
1650546156921.9028,134.66998968717772,0.0
1650546156935.638,134.66998968717772,0.0
1650546156960.697,134.85542168674698,0.0
1650546156962.047,135.2278218847083,0.0
1650546156962.2852,135.5084745762712,0.0
1650546156986.9958,135.79029462738302,0.0
1650546156988.217,135.9788267962513,0.0
1650546156991.865,136.26260869565218,0.0
1650546156992.021,136.45245559038662,0.0
1650546156993.228,136.5475775531544,0.0
1650546157024.482,136.73821989528795,0.0
1650546157024.6821,136.83374083129584,0.0
1650546157025.78,136.92939531632297,0.0
1650546157037.126,136.92939531632297,0.0
1650546157038.4878,137.02518363064007,0.0
1650546157052.083,137.12110605530276,0.0
1650546157052.315,137.02518363064007,0.0
1650546157058.4421,137.12110605530276,0.0
1650546157085.947,137.21716287215412,0.0
1650546157086.124,137.21716287215412,0.0
1650546157087.21,137.21716287215412,0.0
1650546157106.164,137.31335436382753,0.0
1650546157107.378,137.31335436382753,0.0
1650546157108.398,137.40968081374956,0.0
1650546157108.677,137.40968081374956,0.0
1650546157133.708,137.31335436382753,0.0
1650546157134.748,137.31335436382753,0.0
1650546157134.9731,137.40968081374956,0.0
1650546157164.8481,137.40968081374956,0.0
1650546157166.0571,137.21716287215412,0.0
1650546157167.321,137.40968081374956,0.0
1650546157176.01,137.40968081374956,0.0
1650546157176.2131,137.40968081374956,0.0
1650546157201.138,137.31335436382753,0.0
1650546157202.302,137.31335436382753,0.0
1650546157202.455,137.31335436382753,0.0
1650546157224.968,137.40968081374956,0.0
1650546157226.1912,137.31335436382753,0.0
1650546157227.428,137.31335436382753,0.0
1650546157253.694,137.31335436382753,0.0
1650546157253.826,137.21716287215412,0.0
1650546157254.979,137.21716287215412,0.0
1650546157281.2,137.31335436382753,0.0
1650546157281.403,137.31335436382753,0.0
1650546157282.54,137.21716287215412,0.0
1650546157290.0479,137.21716287215412,0.0
1650546157291.3289,137.21716287215412,0.0
1650546157299.9438,137.21716287215412,0.0
1650546157300.225,137.31335436382753,0.0
1650546157325.154,137.21716287215412,0.0
1650546157326.261,137.21716287215412,0.0
1650546157326.448,137.21716287215412,0.0
1650546157342.672,137.31335436382753,0.0
1650546157343.899,137.12110605530276,0.0
1650546157352.7031,137.21716287215412,0.0
1650546157380.116,137.12110605530276,0.0
1650546157380.272,137.31335436382753,0.0
1650546157381.553,137.21716287215412,0.0
1650546157406.436,137.12110605530276,0.0
1650546157406.604,137.21716287215412,0.0
1650546157407.765,137.02518363064007,0.0
1650546157409.008,137.21716287215412,0.0
1650546157417.845,137.21716287215412,0.0
1650546157418.127,137.21716287215412,0.0
1650546157446.5972,137.12110605530276,0.0
1650546157447.9229,137.12110605530276,0.0
1650546157462.802,137.12110605530276,0.0
1650546157462.997,137.12110605530276,0.0
1650546157464.242,137.12110605530276,0.0
1650546157465.4019,137.02518363064007,0.0
1650546157479.175,137.12110605530276,0.0
1650546157504.128,137.02518363064007,0.0
1650546157504.3188,137.12110605530276,0.0
1650546157505.481,137.02518363064007,0.0
1650546157525.418,137.02518363064007,0.0
1650546157525.625,137.02518363064007,0.0
1650546157526.74,136.92939531632297,0.0
1650546157527.971,136.83374083129584,0.0
1650546157555.718,136.83374083129584,0.0
1650546157556.716,136.73821989528795,0.0
1650546157556.8892,136.83374083129584,78.38827838827838
1650546157586.94,136.6428322288106,252.014652014652
1650546157588.0361,136.6428322288106,460.07326007326003
1650546157588.208,136.5475775531544,673.992673992674
1650546157591.895,136.5475775531544,883.5164835164835
1650546157593.18,136.26260869565218,1076.923076923077
1650546157621.876,136.26260869565218,1244.6886446886447
1650546157623.1748,136.0732893365752,1386.080586080586
1650546157623.3088,136.0732893365752,1499.6336996336995
1650546157640.723,135.88449531737774,1585.3479853479853
1650546157641.8901,135.9788267962513,1646.8864468864467
1650546157642.087,135.79029462738302,1684.249084249084
1650546157643.2131,135.79029462738302,1695.970695970696
1650546157657.053,135.5084745762712,1691.5750915750914
1650546157684.701,135.41479433114415,1672.5274725274724
1650546157685.7148,135.41479433114415,1646.153846153846
1650546157685.873,135.2278218847083,1614.6520146520145
1650546157690.8901,135.13452914798205,1580.9523809523807
1650546157691.956,135.13452914798205,1545.054945054945
1650546157692.097,135.04136504653567,1509.89010989011
1650546157713.3738,135.04136504653567,1478.3882783882782
1650546157714.578,134.94832931450225,1450.5494505494505
1650546157744.679,134.94832931450225,1428.5714285714284
1650546157745.7769,134.94832931450225,1413.1868131868132
1650546157745.918,135.04136504653567,1400.0
1650546157765.0981,134.85542168674698,1393.4065934065934
1650546157765.945,134.94832931450225,1390.4761904761904
1650546157766.149,134.85542168674698,1389.0109890109889
1650546157767.249,134.85542168674698,1389.0109890109889
1650546157781.005,134.85542168674698,1389.0109890109889
1650546157807.3882,134.7626418988648,1389.0109890109889
1650546157808.443,134.7626418988648,1391.2087912087911
1650546157808.5762,134.85542168674698,1389.0109890109889
1650546157826.082,134.7626418988648,1385.3479853479853
1650546157827.21,134.7626418988648,1377.2893772893772
1650546157827.363,134.7626418988648,1371.4285714285713
1650546157828.551,134.7626418988648,1368.4981684981683
1650546157857.393,134.66998968717772,1368.4981684981683
1650546157858.663,134.66998968717772,1369.230769230769
1650546157886.093,134.7626418988648,1372.161172161172
1650546157886.279,134.66998968717772,1373.6263736263736
1650546157887.4258,134.66998968717772,1375.8241758241757
1650546157888.582,134.66998968717772,1375.8241758241757
1650546157888.733,134.66998968717772,1374.3589743589744
1650546157894.981,134.7626418988648,1372.161172161172
1650546157921.309,134.57746478873239,1372.8937728937728
1650546157922.508,134.66998968717772,1372.8937728937728
1650546157922.806,134.66998968717772,1372.161172161172
1650546157947.5688,134.57746478873239,1369.9633699633698
1650546157948.7888,134.48506694129765,1369.230769230769
1650546157949.918,134.57746478873239,1366.3003663003662
1650546157950.0571,134.57746478873239,1363.3699633699632
1650546157958.869,134.57746478873239,1359.7069597069597
1650546157983.9028,134.48506694129765,1356.0439560439559
1650546157985.139,134.48506694129765,1350.18315018315
1650546158007.622,134.57746478873239,1343.5897435897434
1650546158007.8071,134.57746478873239,1338.4615384615383
1650546158008.962,134.48506694129765,1332.6007326007325
1650546158010.072,134.48506694129765,1325.2747252747251
1650546158010.23,134.3927958833619,1317.9487179487178
1650546158037.8062,134.30065135413096,1313.5531135531135
1650546158039.0051,134.30065135413096,1308.4249084249084
1650546158066.4302,134.30065135413096,1303.2967032967033
1650546158066.608,134.3927958833619,1299.6336996336995
1650546158067.768,134.20863309352518,1298.168498168498
1650546158069.125,134.20863309352518,1295.2380952380952
1650546158070.157,134.30065135413096,1292.3076923076922
1650546158070.311,134.30065135413096,1288.6446886446886
1650546158095.3591,134.11674084217734,1287.9120879120878
1650546158096.565,134.20863309352518,1287.9120879120878
1650546158122.996,134.20863309352518,1289.3772893772893
1650546158124.161,134.20863309352518,1290.8424908424909
1650546158124.462,134.20863309352518,1290.8424908424909
1650546158135.623,134.02497434143004,1290.8424908424909
1650546158136.656,134.11674084217734,1289.3772893772893
1650546158136.838,134.11674084217734,1289.3772893772893
1650546158171.823,134.11674084217734,1287.9120879120878
1650546158173.0198,134.02497434143004,1287.9120879120878
1650546158184.236,134.02497434143004,1288.6446886446886
1650546158185.3362,134.02497434143004,1290.10989010989
1650546158185.489,134.02497434143004,1292.3076923076922
1650546158186.7139,133.93333333333334,1295.2380952380952
1650546158200.46,134.02497434143004,1295.2380952380952
1650546158200.648,134.02497434143004,1295.2380952380952
1650546158226.803,134.02497434143004,1294.5054945054944
1650546158228.028,133.8418175606423,1293.040293040293
1650546158249.2969,133.8418175606423,1293.040293040293
1650546158249.475,133.93333333333334,1292.3076923076922
1650546158250.725,133.8418175606423,1293.040293040293
1650546158251.863,133.75042676681463,1290.10989010989
1650546158260.5159,133.8418175606423,1286.4468864468863
1650546158285.696,133.8418175606423,1284.2490842490843
1650546158285.887,133.8418175606423,1282.7838827838827
1650546158286.9812,133.75042676681463,1280.5860805860805
1650546158304.462,133.8418175606423,1276.923076923077
1650546158305.6519,133.8418175606423,1271.062271062271
1650546158305.835,133.8418175606423,1268.131868131868
1650546158306.916,133.75042676681463,1268.131868131868
1650546158320.649,133.75042676681463,1266.6666666666665
1650546158320.8909,133.75042676681463,1268.131868131868
1650546158349.515,133.75042676681463,1271.7948717948716
1650546158350.7969,133.6591606960082,1277.6556776556777
1650546158368.309,133.75042676681463,1282.7838827838827
1650546158369.4092,133.75042676681463,1286.4468864468863
1650546158369.553,133.75042676681463,1288.6446886446886
1650546158370.7659,133.6591606960082,1290.10989010989
1650546158399.512,133.56801909307876,1290.10989010989
1650546158399.698,133.6591606960082,1290.8424908424909
1650546158400.817,133.75042676681463,1291.5750915750914
1650546158424.727,133.56801909307876,1293.040293040293
1650546158425.919,133.56801909307876,1293.040293040293
1650546158427.023,133.6591606960082,1292.3076923076922
1650546158427.201,133.6591606960082,1290.10989010989
1650546158440.9011,133.56801909307876,1289.3772893772893
1650546158442.022,133.56801909307876,1285.7142857142856
1650546158442.157,133.6591606960082,1286.4468864468863
1650546158468.462,133.6591606960082,1287.179487179487
1650546158469.687,133.56801909307876,1288.6446886446886
1650546158491.097,133.56801909307876,1288.6446886446886
1650546158491.3362,133.56801909307876,1288.6446886446886
1650546158492.31,133.56801909307876,1287.9120879120878
1650546158501.085,133.56801909307876,1289.3772893772893
1650546158530.9639,133.4770017035775,1293.7728937728937
1650546158532.265,133.56801909307876,1302.5641025641025
1650546158532.319,133.56801909307876,1314.2857142857142
1650546158548.5999,133.4770017035775,1331.8681318681317
1650546158549.782,133.4770017035775,1355.3113553113553
1650546158551.114,133.4770017035775,1385.3479853479853
1650546158551.303,133.56801909307876,1416.117216117216
1650546158577.415,133.38610827374873,1452.014652014652
1650546158578.5168,133.4770017035775,1488.6446886446886
1650546158578.6208,133.4770017035775,1523.0769230769229
1650546158606.2788,133.56801909307876,1552.3809523809523
1650546158607.49,133.4770017035775,1574.3589743589744
1650546158608.665,133.4770017035775,1589.7435897435896
1650546158617.323,133.4770017035775,1602.197802197802
1650546158617.4778,133.56801909307876,1607.3260073260071
1650546158642.518,133.38610827374873,1605.8608058608058
1650546158643.7212,133.38610827374873,1593.4065934065934
1650546158667.792,133.4770017035775,1575.8241758241757
1650546158668.8271,133.4770017035775,1553.113553113553
1650546158670.0898,133.2953385505274,1531.135531135531
1650546158671.3408,133.38610827374873,1505.4945054945053
1650546158708.781,133.38610827374873,1482.051282051282
1650546158708.965,133.4770017035775,1455.6776556776556
1650546158710.078,133.38610827374873,1433.6996336996335
1650546158728.8188,133.4770017035775,1410.989010989011
1650546158729.006,133.38610827374873,1391.9413919413919
1650546158730.1272,133.4770017035775,1376.5567765567764
1650546158731.3672,133.2953385505274,1366.3003663003662
1650546158732.522,133.38610827374873,1358.2417582417581
1650546158732.6628,133.38610827374873,1355.3113553113553
1650546158741.417,133.38610827374873,1356.0439560439559
1650546158767.748,133.2046922815369,1357.5091575091574
1650546158768.817,133.2953385505274,1357.5091575091574
1650546158768.9321,133.38610827374873,1354.5787545787546
1650546158786.646,133.2953385505274,1352.3809523809523
1650546158787.854,133.2046922815369,1353.113553113553
1650546158789.0178,133.2953385505274,1353.113553113553
1650546158802.682,133.2953385505274,1353.113553113553
1650546158802.867,133.2953385505274,1352.3809523809523
1650546158830.5571,133.2046922815369,1353.113553113553
1650546158831.5188,133.2953385505274,1354.5787545787546
1650546158831.644,133.2046922815369,1356.7765567765566
1650546158849.122,133.2953385505274,1360.4395604395604
1650546158850.3188,133.11416921508666,1364.8351648351647
1650546158851.5962,133.2046922815369,1367.032967032967
1650546158879.063,133.2046922815369,1370.6959706959706
1650546158879.246,133.2046922815369,1371.4285714285713
1650546158880.378,133.2046922815369,1369.9633699633698
1650546158905.438,133.2046922815369,1367.032967032967
1650546158905.8171,133.2046922815369,1362.6373626373625
1650546158906.754,133.2046922815369,1357.5091575091574
1650546158910.492,133.02376910016977,1358.2417582417581
1650546158938.249,133.11416921508666,1358.2417582417581
1650546158938.592,133.11416921508666,1358.974358974359
1650546158939.2732,133.2046922815369,1358.974358974359
1650546158964.325,133.11416921508666,1358.2417582417581
1650546158965.4282,133.02376910016977,1356.7765567765566
1650546158970.671,133.02376910016977,1352.3809523809523
1650546158970.8372,133.02376910016977,1345.7875457875457
1650546158971.8271,133.11416921508666,1340.6593406593406
1650546158996.884,133.11416921508666,1335.5311355311355
1650546158997.9739,133.02376910016977,1330.4029304029302
1650546158998.102,133.02376910016977,1324.5421245421244
1650546159024.416,133.02376910016977,1318.6813186813185
1650546159025.52,133.02376910016977,1311.3553113553112
1650546159025.5789,133.02376910016977,1304.0293040293038
1650546159033.19,133.02376910016977,1298.9010989010987
1650546159034.3982,132.93349168646083,1298.168498168498
1650546159043.162,132.93349168646083,1295.970695970696
1650546159073.148,132.84333672431333,1293.7728937728937
1650546159073.356,132.93349168646083,1292.3076923076922
1650546159074.452,132.84333672431333,1293.040293040293
1650546159090.69,132.93349168646083,1292.3076923076922
1650546159090.834,132.93349168646083,1289.3772893772893
1650546159092.011,132.93349168646083,1286.4468864468863
1650546159093.239,132.84333672431333,1284.2490842490843
1650546159122.067,132.84333672431333,1281.3186813186812
1650546159123.157,132.84333672431333,1276.923076923077
1650546159123.279,132.93349168646083,1273.9926739926739
1650546159145.8408,132.75330396475772,1272.5274725274724
1650546159146.928,132.84333672431333,1271.062271062271
1650546159147.024,132.84333672431333,1269.5970695970695
1650546159148.277,132.84333672431333,1268.131868131868
1650546159157.133,132.6633931594988,1269.5970695970695
1650546159197.0862,132.75330396475772,1271.062271062271
1650546159197.263,132.75330396475772,1273.260073260073
1650546159198.3909,132.6633931594988,1275.4578754578754
1650546159204.72,132.6633931594988,1277.6556776556777
1650546159205.882,132.6633931594988,1279.120879120879
1650546159206.066,132.6633931594988,1282.051282051282
1650546159207.27,132.5736040609137,1282.051282051282
1650546159221.109,132.5736040609137,1283.5164835164835
1650546159246.017,132.5736040609137,1283.5164835164835
1650546159247.147,132.5736040609137,1284.9816849816848
1650546159247.232,132.6633931594988,1285.7142857142856
1650546159268.5461,132.5736040609137,1288.6446886446886
1650546159269.645,132.4839364220494,1287.179487179487
1650546159269.781,132.5736040609137,1284.2490842490843
1650546159271.014,132.5736040609137,1279.8534798534797
1650546159298.5999,132.4839364220494,1277.6556776556777
1650546159299.654,132.4839364220494,1276.1904761904761
1650546159299.719,132.4839364220494,1273.9926739926739
1650546159327.392,132.5736040609137,1271.7948717948716
1650546159328.6382,132.4839364220494,1270.3296703296703
1650546159329.709,132.4839364220494,1267.3992673992673
1650546159329.8088,132.4839364220494,1264.4688644688645
1650546159334.86,132.4839364220494,1263.003663003663
1650546159359.9492,132.39438999662048,1263.003663003663
1650546159361.0798,132.39438999662048,1263.003663003663
1650546159361.2512,132.4839364220494,1263.7362637362637
1650546159391.249,132.39438999662048,1266.6666666666665
1650546159392.424,132.3049645390071,1268.8644688644688
1650546159396.149,132.3049645390071,1270.3296703296703
1650546159396.3152,132.3049645390071,1272.5274725274724
1650546159397.466,132.39438999662048,1273.9926739926739
1650546159431.3892,132.3049645390071,1274.7252747252746
1650546159432.454,132.3049645390071,1273.9926739926739
1650546159432.637,132.3049645390071,1273.260073260073
1650546159450.082,132.3049645390071,1270.3296703296703
1650546159451.302,132.21565980425245,1267.3992673992673
1650546159452.44,132.21565980425245,1263.003663003663
1650546159452.587,132.21565980425245,1260.8058608058607
1650546159461.346,132.3049645390071,1259.3406593406592
1650546159501.494,132.21565980425245,1263.003663003663
1650546159502.6938,132.21565980425245,1268.131868131868
1650546159503.843,132.21565980425245,1275.4578754578754
1650546159504.0159,132.21565980425245,1283.5164835164835
1650546159505.206,132.1264755480607,1293.040293040293
1650546159518.9158,132.21565980425245,1298.168498168498
1650546159519.1199,132.03741152679476,1304.0293040293038
1650546159520.277,132.1264755480607,1305.4945054945053
1650546159550.335,132.03741152679476,1309.1575091575091
1650546159551.7422,132.1264755480607,1312.087912087912
1650546159565.1309,132.03741152679476,1317.216117216117
1650546159565.31,132.03741152679476,1327.4725274725274
1650546159566.457,132.03741152679476,1339.194139194139
1650546159577.6602,132.03741152679476,1355.3113553113553
1650546159605.32,131.9484674974739,1370.6959706959706
1650546159605.522,132.03741152679476,1387.5457875457876
1650546159606.527,131.9484674974739,1405.8608058608058
1650546159631.629,131.9484674974739,1424.9084249084249
1650546159632.659,131.9484674974739,1443.956043956044
1650546159632.72,132.03741152679476,1460.07326007326
1650546159640.422,131.8596432177718,1475.4578754578754
1650546159641.5278,131.9484674974739,1487.179487179487
1650546159641.636,131.8596432177718,1495.2380952380952
1650546159669.1338,131.9484674974739,1497.4358974358972
1650546159670.465,131.8596432177718,1495.2380952380952
1650546159691.687,131.8596432177718,1487.9120879120878
1650546159692.785,131.8596432177718,1476.923076923077
1650546159692.905,131.8596432177718,1464.4688644688645
1650546159694.1162,131.77093844601413,1450.5494505494505
1650546159700.367,131.77093844601413,1434.4322344322343
1650546159700.55,131.8596432177718,1417.5824175824175
1650546159725.503,131.8596432177718,1401.4652014652013
1650546159726.682,131.68235294117648,1389.0109890109889
1650546159750.535,131.77093844601413,1377.2893772893772
1650546159751.635,131.77093844601413,1368.4981684981683
1650546159751.7148,131.77093844601413,1360.4395604395604
1650546159752.964,131.68235294117648,1354.5787545787546
1650546159786.7688,131.5938864628821,1347.985347985348
1650546159786.9092,131.5055387713998,1342.1245421245421
1650546159788.11,131.5938864628821,1337.7289377289376
1650546159806.866,131.5055387713998,1334.7985347985348
1650546159808.079,131.41730962764174,1331.135531135531
1650546159809.205,131.5055387713998,1326.7399267399267
1650546159809.318,131.5055387713998,1323.8095238095236
1650546159814.402,131.41730962764174,1323.8095238095236
1650546159843.245,131.41730962764174,1325.2747252747251
1650546159843.437,131.41730962764174,1326.7399267399267
1650546159844.808,131.41730962764174,1330.4029304029302
1650546159869.49,131.32919879316125,1334.7985347985348
1650546159870.596,131.41730962764174,1335.5311355311355
1650546159870.717,131.32919879316125,1333.3333333333333
1650546159871.9658,131.41730962764174,1331.8681318681317
1650546159877.134,131.32919879316125,1331.8681318681317
1650546159914.767,131.32919879316125,1333.3333333333333
1650546159915.052,131.32919879316125,1333.3333333333333
1650546159915.886,131.32919879316125,1336.263736263736
1650546159931.053,131.24120603015078,1339.9267399267399
1650546159931.9302,131.32919879316125,1343.5897435897434
1650546159932.039,131.32919879316125,1346.5201465201465
1650546159933.317,131.32919879316125,1350.9157509157508
1650546159943.563,131.24120603015078,1352.3809523809523
1650546159967.0461,131.24120603015078,1351.6483516483515
1650546159967.242,131.32919879316125,1347.985347985348
1650546159968.362,131.32919879316125,1341.3919413919414
1650546159987.153,131.24120603015078,1335.5311355311355
1650546159988.3062,131.24120603015078,1329.6703296703297
1650546159989.46,131.24120603015078,1326.007326007326
1650546159989.516,131.32919879316125,1320.14652014652
1650546160003.44,131.24120603015078,1317.216117216117
1650546160029.737,131.15333110143956,1317.9487179487178
1650546160048.5088,131.15333110143956,1320.14652014652
1650546160048.6592,131.24120603015078,1321.6117216117216
1650546160049.712,131.24120603015078,1320.8791208791208
1650546160050.986,131.15333110143956,1317.9487179487178
1650546160052.198,131.0655737704918,1317.216117216117
1650546160052.349,131.0655737704918,1315.018315018315
1650546160078.602,130.89041095890408,1315.018315018315
1650546160080.117,130.89041095890408,1312.8205128205127
1650546160080.385,130.9779338014042,1311.3553113553112
1650546160106.127,130.9779338014042,1308.4249084249084
1650546160107.3179,130.89041095890408,1307.6923076923076
1650546160117.373,130.89041095890408,1306.9597069597069
1650546160118.521,130.89041095890408,1307.6923076923076
1650546160118.789,130.89041095890408,1308.4249084249084
1650546160146.411,130.80300500834724,1309.89010989011
1650546160147.282,130.80300500834724,1310.6227106227104
1650546160147.424,130.89041095890408,1310.6227106227104
1650546160169.908,130.89041095890408,1309.1575091575091
1650546160171.134,130.80300500834724,1306.9597069597069
1650546160172.2568,130.80300500834724,1302.5641025641025
1650546160172.345,130.80300500834724,1298.9010989010987
1650546160181.293,130.80300500834724,1294.5054945054944
1650546160211.2998,130.80300500834724,1292.3076923076922
1650546160212.427,130.80300500834724,1293.7728937728937
1650546160212.569,130.80300500834724,1293.7728937728937
1650546160217.603,130.89041095890408,1292.3076923076922
1650546160218.7058,130.80300500834724,1292.3076923076922
1650546160237.69,130.80300500834724,1291.5750915750914
1650546160238.052,130.80300500834724,1291.5750915750914
1650546160238.738,130.80300500834724,1290.10989010989
1650546160271.3872,130.80300500834724,1290.8424908424909
1650546160272.449,130.80300500834724,1290.8424908424909
1650546160272.5771,130.80300500834724,1290.8424908424909
1650546160290.232,130.7157157157157,1290.10989010989
1650546160291.337,130.7157157157157,1288.6446886446886
1650546160292.529,130.80300500834724,1287.9120879120878
1650546160317.621,130.7157157157157,1289.3772893772893
1650546160317.769,130.62854284761585,1290.8424908424909
1650546160318.86,130.80300500834724,1291.5750915750914
1650546160343.7542,130.7157157157157,1293.040293040293
1650546160343.876,130.7157157157157,1295.970695970696
1650546160345.135,130.80300500834724,1298.168498168498
1650546160358.905,130.7157157157157,1304.7619047619046
1650546160360.27,130.7157157157157,1309.1575091575091
1650546160386.396,130.7157157157157,1312.087912087912
1650546160386.679,130.80300500834724,1311.3553113553112
1650546160387.764,130.62854284761585,1312.087912087912
1650546160405.21,130.62854284761585,1309.89010989011
1650546160405.556,130.62854284761585,1309.89010989011
1650546160406.482,130.62854284761585,1308.4249084249084
1650546160407.762,130.62854284761585,1306.9597069597069
1650546160421.498,130.62854284761585,1304.7619047619046
1650546160451.577,130.62854284761585,1304.7619047619046
1650546160451.718,130.7157157157157,1301.8315018315018
1650546160452.709,130.62854284761585,1296.7032967032967
1650546160475.281,130.62854284761585,1292.3076923076922
1650546160475.555,130.62854284761585,1287.179487179487
1650546160476.692,130.62854284761585,1284.2490842490843
1650546160479.729,130.62854284761585,1281.3186813186812
1650546160479.9521,130.62854284761585,1279.120879120879
1650546160480.019,130.62854284761585,1280.5860805860805
1650546160510.45,130.62854284761585,1283.5164835164835
1650546160511.605,130.62854284761585,1287.179487179487
1650546160529.195,130.62854284761585,1291.5750915750914
1650546160529.551,130.62854284761585,1298.168498168498
1650546160530.3901,130.54148617127623,1305.4945054945053
1650546160531.7231,130.45454545454544,1311.3553113553112
1650546160545.5571,130.62854284761585,1318.6813186813185
1650546160585.3381,130.62854284761585,1330.4029304029302
1650546160585.5898,130.62854284761585,1345.054945054945
1650546160586.6921,130.54148617127623,1364.8351648351647
1650546160587.842,130.54148617127623,1383.150183150183
1650546160587.915,130.62854284761585,1403.6630036630036
1650546160589.325,130.62854284761585,1421.9780219780218
1650546160598.262,130.54148617127623,1439.5604395604394
1650546160622.968,130.62854284761585,1454.212454212454
1650546160623.1338,130.54148617127623,1467.3992673992673
1650546160624.232,130.62854284761585,1476.923076923077
1650546160646.821,130.54148617127623,1482.051282051282
1650546160648.489,130.54148617127623,1482.051282051282
1650546160648.636,130.54148617127623,1479.120879120879
1650546160649.25,130.62854284761585,1471.7948717948716
1650546160663.046,130.45454545454544,1461.5384615384614
1650546160689.2258,130.54148617127623,1449.084249084249
1650546160689.369,130.54148617127623,1433.6996336996335
1650546160690.81,130.54148617127623,1419.7802197802198
1650546160706.867,130.54148617127623,1405.8608058608058
1650546160708.058,130.54148617127623,1394.139194139194
1650546160708.175,130.54148617127623,1383.8827838827838
1650546160713.267,130.62854284761585,1372.161172161172
1650546160721.975,130.54148617127623,1364.102564102564
1650546160749.602,130.54148617127623,1358.974358974359
1650546160749.792,130.54148617127623,1356.7765567765566
1650546160749.864,130.62854284761585,1354.5787545787546
1650546160773.339,130.45454545454544,1356.0439560439559
1650546160774.3298,130.45454545454544,1355.3113553113553
1650546160774.515,130.54148617127623,1356.7765567765566
1650546160775.785,130.54148617127623,1356.7765567765566
1650546160784.471,130.45454545454544,1358.974358974359
1650546160809.3801,130.54148617127623,1358.974358974359
1650546160809.5579,130.54148617127623,1356.7765567765566
1650546160827.0112,130.54148617127623,1354.5787545787546
1650546160828.1592,130.54148617127623,1354.5787545787546
1650546160828.244,130.54148617127623,1353.113553113553
1650546160828.304,130.54148617127623,1351.6483516483515
1650546160843.411,130.54148617127623,1350.9157509157508
1650546160844.561,130.54148617127623,1351.6483516483515
1650546160879.555,130.54148617127623,1353.8461538461538
1650546160879.759,130.54148617127623,1356.7765567765566
1650546160880.8848,130.62854284761585,1360.4395604395604
1650546160888.426,130.45454545454544,1364.102564102564
1650546160889.473,130.45454545454544,1364.8351648351647
1650546160898.4832,130.45454545454544,1364.8351648351647
1650546160898.661,130.62854284761585,1363.3699633699632
1650546160923.5352,130.45454545454544,1362.6373626373625
1650546160924.671,130.54148617127623,1361.904761904762
1650546160947.146,130.54148617127623,1361.904761904762
1650546160947.315,130.54148617127623,1360.4395604395604
1650546160948.437,130.45454545454544,1358.974358974359
1650546160949.575,130.54148617127623,1355.3113553113553
1650546160949.7048,130.54148617127623,1351.6483516483515
1650546160963.661,130.45454545454544,1347.2527472527472
1650546160997.294,130.45454545454544,1338.4615384615383
1650546160998.515,130.54148617127623,1334.065934065934
1650546161011.514,130.54148617127623,1331.135531135531
1650546161011.6912,130.54148617127623,1329.6703296703297
1650546161011.7441,130.45454545454544,1328.937728937729
1650546161012.647,130.54148617127623,1329.6703296703297
1650546161012.868,130.54148617127623,1329.6703296703297
1650546161026.167,130.45454545454544,1329.6703296703297
1650546161054.92,130.45454545454544,1328.937728937729
1650546161056.119,130.54148617127623,1326.7399267399267
1650546161068.5671,130.54148617127623,1322.3443223443223
1650546161068.696,130.54148617127623,1318.6813186813185
1650546161069.835,130.54148617127623,1315.018315018315
1650546161078.711,130.54148617127623,1310.6227106227104
1650546161084.914,130.54148617127623,1306.227106227106
1650546161111.144,130.54148617127623,1301.8315018315018
1650546161112.3809,130.45454545454544,1298.168498168498
1650546161128.649,130.45454545454544,1296.7032967032967
1650546161129.7869,130.54148617127623,1293.040293040293
1650546161129.904,130.54148617127623,1291.5750915750914
1650546161131.168,130.54148617127623,1290.10989010989
1650546161146.164,130.54148617127623,1288.6446886446886
1650546161146.421,130.45454545454544,1287.9120879120878
1650546161172.512,130.54148617127623,1288.6446886446886
1650546161173.681,130.45454545454544,1287.9120879120878
1650546161187.5369,130.54148617127623,1287.179487179487
1650546161188.749,130.54148617127623,1285.7142857142856
1650546161188.913,130.45454545454544,1287.9120879120878
1650546161202.589,130.45454545454544,1291.5750915750914
1650546161229.944,130.45454545454544,1296.7032967032967
1650546161230.078,130.45454545454544,1300.3663003663003
1650546161232.599,130.54148617127623,1304.7619047619046
1650546161247.609,130.45454545454544,1309.1575091575091
1650546161248.706,130.45454545454544,1313.5531135531135
1650546161248.833,130.54148617127623,1318.6813186813185
1650546161250.114,130.36772046589016,1323.076923076923
1650546161251.2969,130.45454545454544,1326.007326007326
1650546161265.07,130.45454545454544,1326.7399267399267
1650546161265.309,130.45454545454544,1328.937728937729
1650546161291.367,130.45454545454544,1328.937728937729
1650546161292.659,130.28101097439307,1329.6703296703297
1650546161316.4312,130.45454545454544,1328.2051282051282
1650546161317.0781,130.45454545454544,1327.4725274725274
1650546161317.73,130.36772046589016,1328.2051282051282
1650546161318.8938,130.36772046589016,1328.937728937729
1650546161350.1438,130.36772046589016,1328.2051282051282
1650546161351.404,130.28101097439307,1329.6703296703297
1650546161351.537,130.36772046589016,1328.2051282051282
1650546161370.2258,130.36772046589016,1325.2747252747251
1650546161371.448,130.45454545454544,1320.8791208791208
1650546161372.59,130.36772046589016,1317.216117216117
1650546161372.71,130.45454545454544,1314.2857142857142
1650546161381.659,130.36772046589016,1312.087912087912
1650546161407.71,130.36772046589016,1309.89010989011
1650546161407.937,130.36772046589016,1308.4249084249084
1650546161408.99,130.36772046589016,1308.4249084249084
1650546161427.8792,130.36772046589016,1308.4249084249084
1650546161429.03,130.28101097439307,1308.4249084249084
1650546161430.178,130.36772046589016,1307.6923076923076
1650546161430.33,130.45454545454544,1306.9597069597069
1650546161441.595,130.28101097439307,1306.227106227106
1650546161471.563,130.36772046589016,1306.227106227106
1650546161471.8062,130.36772046589016,1305.4945054945053
1650546161472.836,130.36772046589016,1304.7619047619046
1650546161490.487,130.36772046589016,1302.5641025641025
1650546161491.504,130.36772046589016,1300.3663003663003
1650546161491.67,130.36772046589016,1299.6336996336995
1650546161492.927,130.36772046589016,1299.6336996336995
1650546161506.721,130.36772046589016,1300.3663003663003
1650546161531.5461,130.28101097439307,1301.098901098901
1650546161531.666,130.36772046589016,1301.8315018315018
1650546161532.8928,130.45454545454544,1304.0293040293038
1650546161551.726,130.28101097439307,1306.9597069597069
1650546161552.899,130.36772046589016,1309.89010989011
1650546161554.111,130.36772046589016,1315.7509157509157
1650546161554.27,130.45454545454544,1321.6117216117216
1650546161583.126,130.28101097439307,1327.4725274725274
1650546161584.1018,130.36772046589016,1335.5311355311355
1650546161584.1838,130.36772046589016,1349.4505494505493
1650546161609.292,130.36772046589016,1365.5677655677655
1650546161610.498,130.28101097439307,1384.6153846153845
1650546161611.7239,130.28101097439307,1404.3956043956043
1650546161625.4238,130.36772046589016,1421.9780219780218
1650546161625.678,130.36772046589016,1439.5604395604394
1650546161653.0918,130.28101097439307,1454.212454212454
1650546161654.24,130.28101097439307,1465.9340659340658
1650546161654.41,130.36772046589016,1476.1904761904761
1650546161669.322,130.28101097439307,1483.5164835164835
1650546161670.5251,130.28101097439307,1490.10989010989
1650546161671.641,130.36772046589016,1495.2380952380952
1650546161671.731,130.28101097439307,1493.7728937728937
1650546161688.329,130.19441674975073,1490.10989010989
1650546161710.691,130.19441674975073,1482.051282051282
1650546161711.759,130.28101097439307,1471.7948717948716
1650546161711.8918,130.28101097439307,1458.6080586080584
1650546161733.2002,130.36772046589016,1443.2234432234432
1650546161733.63,130.28101097439307,1426.3736263736262
1650546161734.557,130.28101097439307,1412.4542124542124
1650546161764.362,130.28101097439307,1400.0
1650546161764.503,130.10793756227167,1390.4761904761904
1650546161768.134,130.28101097439307,1380.952380952381
1650546161789.3938,130.28101097439307,1373.6263736263736
1650546161789.552,130.28101097439307,1367.7655677655678
1650546161790.6511,130.28101097439307,1361.904761904762
1650546161791.961,130.19441674975073,1358.974358974359
1650546161793.237,130.28101097439307,1357.5091575091574
1650546161808.422,130.28101097439307,1356.7765567765566
1650546161808.593,130.28101097439307,1356.0439560439559
1650546161832.023,130.19441674975073,1356.0439560439559
1650546161833.132,130.10793756227167,1356.0439560439559
1650546161833.261,130.19441674975073,1355.3113553113553
1650546161855.844,130.28101097439307,1357.5091575091574
1650546161857.052,130.19441674975073,1359.7069597069597
1650546161858.342,130.19441674975073,1363.3699633699632
1650546161889.572,130.10793756227167,1363.3699633699632
1650546161889.7468,130.0215731828742,1364.8351648351647
1650546161890.857,130.10793756227167,1364.8351648351647
1650546161913.338,130.10793756227167,1363.3699633699632
1650546161913.655,130.0215731828742,1361.904761904762
1650546161914.572,130.10793756227167,1361.1721611721612
1650546161915.88,130.0215731828742,1358.2417582417581
1650546161917.1208,130.0215731828742,1356.7765567765566
1650546161952.08,129.93532338308458,1354.5787545787546
1650546161952.269,129.93532338308458,1353.8461538461538
1650546161953.4011,129.93532338308458,1351.6483516483515
1650546161966.502,129.93532338308458,1352.3809523809523
1650546161966.797,129.93532338308458,1352.3809523809523
1650546161967.167,130.0215731828742,1353.8461538461538
1650546161976.5242,129.8491879350348,1353.8461538461538
1650546161986.047,129.93532338308458,1356.0439560439559
1650546162012.362,129.8491879350348,1355.3113553113553
1650546162012.553,129.8491879350348,1353.113553113553
1650546162013.4958,129.67725918570008,1349.4505494505493
1650546162036.094,129.67725918570008,1345.054945054945
1650546162036.252,129.67725918570008,1343.5897435897434
1650546162037.8152,129.59146543169035,1339.194139194139
1650546162038.5288,129.59146543169035,1333.3333333333333
1650546162064.7732,129.59146543169035,1328.937728937729
1650546162064.946,129.59146543169035,1326.007326007326
1650546162066.0159,129.59146543169035,1322.3443223443223
1650546162094.906,129.50578512396694,1317.216117216117
1650546162097.301,129.50578512396694,1315.018315018315
1650546162097.625,129.59146543169035,1313.5531135531135
1650546162103.577,129.59146543169035,1312.8205128205127
1650546162104.781,129.50578512396694,1312.087912087912
1650546162106.077,129.50578512396694,1312.8205128205127
1650546162133.6401,129.50578512396694,1310.6227106227104
1650546162133.939,129.42021803766104,1306.227106227106
1650546162134.8938,129.42021803766104,1301.8315018315018
1650546162153.646,129.42021803766104,1300.3663003663003
1650546162153.869,129.33476394849785,1298.9010989010987
1650546162154.843,129.42021803766104,1298.9010989010987
1650546162159.882,129.33476394849785,1298.9010989010987
1650546162186.219,129.33476394849785,1300.3663003663003
1650546162187.285,129.33476394849785,1300.3663003663003
1650546162187.4849,129.33476394849785,1303.2967032967033
1650546162213.837,129.24942263279445,1304.0293040293038
1650546162216.158,129.33476394849785,1304.7619047619046
1650546162216.2869,129.24942263279445,1302.5641025641025
1650546162216.324,129.24942263279445,1301.8315018315018
1650546162225.087,129.16419386745795,1299.6336996336995
1650546162251.185,129.24942263279445,1298.168498168498
1650546162251.416,129.16419386745795,1298.168498168498
1650546162252.448,129.16419386745795,1297.4358974358975
1650546162273.793,129.07907742998353,1295.970695970696
1650546162274.917,129.16419386745795,1295.2380952380952
1650546162275.032,129.16419386745795,1294.5054945054944
1650546162276.283,129.16419386745795,1293.7728937728937
1650546162315.096,129.07907742998353,1295.970695970696
1650546162316.162,129.07907742998353,1298.168498168498
1650546162316.2961,129.07907742998353,1298.168498168498
1650546162330.078,128.99407309845242,1298.168498168498
1650546162331.375,128.99407309845242,1296.7032967032967
1650546162331.503,128.9091806515301,1297.4358974358975
1650546162331.5388,128.9091806515301,1295.970695970696
1650546162340.064,128.9091806515301,1294.5054945054944
1650546162371.345,128.9091806515301,1292.3076923076922
1650546162372.503,128.82439986846433,1288.6446886446886
1650546162372.64,128.82439986846433,1286.4468864468863
1650546162397.814,128.73973052908315,1283.5164835164835
1650546162398.918,128.6551724137931,1280.5860805860805
1650546162406.283,128.6551724137931,1279.120879120879
1650546162406.502,128.6551724137931,1279.120879120879
1650546162407.637,128.5707253035773,1279.8534798534797
1650546162432.6921,128.48638897999345,1280.5860805860805
1650546162433.961,128.48638897999345,1280.5860805860805
1650546162458.907,128.48638897999345,1277.6556776556777
1650546162459.103,128.48638897999345,1276.923076923077
1650546162460.186,128.40216322517207,1276.923076923077
1650546162463.958,128.40216322517207,1278.3882783882782
1650546162464.228,128.40216322517207,1278.3882783882782
1650546162465.23,128.40216322517207,1277.6556776556777
1650546162499.068,128.31804782181462,1276.923076923077
1650546162500.16,128.31804782181462,1276.923076923077
1650546162500.313,128.2340425531915,1279.8534798534797
1650546162517.7852,128.2340425531915,1286.4468864468863
1650546162519.023,128.15014720314034,1292.3076923076922
1650546162520.175,128.15014720314034,1299.6336996336995
1650546162520.277,128.15014720314034,1304.0293040293038
1650546162526.697,128.15014720314034,1307.6923076923076
1650546162551.5798,128.06636155606407,1312.087912087912
1650546162552.645,128.06636155606407,1317.9487179487178
1650546162552.7598,128.15014720314034,1321.6117216117216
1650546162576.573,128.06636155606407,1326.007326007326
1650546162577.841,127.98268539692911,1332.6007326007325
1650546162579.022,127.98268539692911,1342.8571428571427
1650546162579.216,127.98268539692911,1357.5091575091574
1650546162604.1528,127.89911851126347,1372.8937728937728
1650546162605.333,127.98268539692911,1388.278388278388
1650546162635.3071,127.89911851126347,1403.6630036630036
1650546162635.4138,127.89911851126347,1418.3150183150183
1650546162636.591,127.98268539692911,1434.4322344322343
1650546162645.5,127.89911851126347,1451.2820512820513
1650546162646.583,127.89911851126347,1463.7362637362637
1650546162646.8042,127.89911851126347,1473.260073260073
1650546162647.959,127.81566068515498,1478.3882783882782
1650546162679.2048,127.73231170524943,1480.5860805860805
1650546162696.726,127.81566068515498,1479.120879120879
1650546162697.829,127.73231170524943,1476.1904761904761
1650546162697.939,127.81566068515498,1470.3296703296703
1650546162699.2249,127.64907135874878,1461.5384615384614
1650546162702.221,127.73231170524943,1450.5494505494505
1650546162702.435,127.81566068515498,1438.095238095238
1650546162736.843,127.64907135874878,1426.3736263736262
1650546162737.971,127.73231170524943,1413.9194139194137
1650546162741.974,127.73231170524943,1404.3956043956043
1650546162742.954,127.73231170524943,1397.069597069597
1650546162743.18,127.73231170524943,1391.2087912087911
1650546162755.7039,127.64907135874878,1386.080586080586
1650546162780.627,127.73231170524943,1382.4175824175823
1650546162781.26,127.64907135874878,1378.021978021978
1650546162782.3638,127.73231170524943,1375.091575091575
1650546162806.824,127.56593943340931,1372.161172161172
1650546162807.977,127.56593943340931,1369.230769230769
1650546162808.1738,127.64907135874878,1367.032967032967
1650546162820.62,127.64907135874878,1362.6373626373625
1650546162821.785,127.48291571753987,1358.974358974359
1650546162828.069,127.64907135874878,1356.7765567765566
1650546162828.223,127.64907135874878,1355.3113553113553
1650546162854.5571,127.56593943340931,1356.7765567765566
1650546162855.618,127.56593943340931,1358.974358974359
1650546162876.995,127.56593943340931,1360.4395604395604
1650546162878.011,127.56593943340931,1363.3699633699632
1650546162878.17,127.56593943340931,1365.5677655677655
1650546162879.395,127.48291571753987,1367.7655677655678
1650546162905.618,127.56593943340931,1373.6263736263736
1650546162905.7551,127.56593943340931,1376.5567765567764
1650546162906.885,127.56593943340931,1376.5567765567764
1650546162933.24,127.48291571753987,1377.2893772893772
1650546162934.542,127.48291571753987,1377.2893772893772
1650546162941.374,127.48291571753987,1376.5567765567764
1650546162941.566,127.56593943340931,1375.8241758241757
1650546162941.914,127.4,1374.3589743589744
1650546162968.188,127.4,1369.9633699633698
1650546162968.4392,127.48291571753987,1364.8351648351647
1650546162969.501,127.48291571753987,1361.1721611721612
1650546162995.795,127.4,1356.7765567765566
1650546162997.025,127.4,1352.3809523809523
1650546163005.809,127.4,1350.18315018315
1650546163005.999,127.48291571753987,1348.7179487179487
1650546163007.02,127.31719207019825,1347.2527472527472
1650546163038.275,127.4,1345.054945054945
1650546163041.927,127.31719207019825,1343.5897435897434
1650546163042.185,127.4,1341.3919413919414
1650546163058.299,127.31719207019825,1339.9267399267399
1650546163059.574,127.4,1339.194139194139
1650546163060.735,127.31719207019825,1338.4615384615383
1650546163060.843,127.31719207019825,1338.4615384615383
1650546163087.0,127.31719207019825,1336.9963369963368
1650546163087.173,127.2344917180903,1335.5311355311355
1650546163087.207,127.31719207019825,1331.8681318681317
1650546163112.242,127.4,1327.4725274725274
1650546163113.4219,127.31719207019825,1325.2747252747251
1650546163124.727,127.31719207019825,1322.3443223443223
1650546163125.79,127.31719207019825,1318.6813186813185
1650546163125.9192,127.4,1315.018315018315
1650546163127.1118,127.2344917180903,1312.087912087912
1650546163155.844,127.2344917180903,1309.1575091575091
1650546163155.966,127.31719207019825,1304.7619047619046
1650546163157.166,127.31719207019825,1304.0293040293038
1650546163179.759,127.2344917180903,1304.7619047619046
1650546163180.9421,127.2344917180903,1309.1575091575091
1650546163182.089,127.2344917180903,1308.4249084249084
1650546163182.3608,127.31719207019825,1308.4249084249084
1650546163208.532,127.2344917180903,1307.6923076923076
1650546163210.772,127.15189873417722,1307.6923076923076
1650546163210.94,127.2344917180903,1306.9597069597069
1650546163236.0078,127.2344917180903,1309.1575091575091
1650546163237.223,127.15189873417722,1312.087912087912
1650546163244.907,127.2344917180903,1315.018315018315
1650546163245.995,127.2344917180903,1317.9487179487178
1650546163246.202,127.31719207019825,1322.3443223443223
1650546163271.034,127.15189873417722,1326.7399267399267
1650546163272.106,127.2344917180903,1331.8681318681317
1650546163272.198,127.2344917180903,1332.6007326007325
1650546163297.259,127.2344917180903,1333.3333333333333
1650546163302.367,127.15189873417722,1334.7985347985348
1650546163303.628,127.15189873417722,1337.7289377289376
1650546163306.063,127.2344917180903,1339.194139194139
1650546163306.3171,127.15189873417722,1342.1245421245421
1650546163332.327,127.15189873417722,1345.054945054945
1650546163333.428,127.15189873417722,1347.2527472527472
1650546163333.604,127.2344917180903,1349.4505494505493
1650546163358.603,127.15189873417722,1350.18315018315
1650546163359.866,127.06941290950373,1350.18315018315
1650546163384.826,127.15189873417722,1347.985347985348
1650546163385.0,127.06941290950373,1344.3223443223442
1650546163385.026,126.98703403565641,1340.6593406593406
1650546163386.172,127.15189873417722,1338.4615384615383
1650546163412.7222,127.15189873417722,1339.9267399267399
1650546163412.948,127.15189873417722,1340.6593406593406
1650546163413.6182,127.15189873417722,1340.6593406593406
1650546163414.853,127.06941290950373,1342.8571428571427
1650546163423.544,127.06941290950373,1345.7875457875457
1650546163457.4832,127.06941290950373,1346.5201465201465
1650546163457.6409,127.15189873417722,1345.7875457875457
1650546163458.666,127.06941290950373,1345.054945054945
1650546163468.599,127.15189873417722,1343.5897435897434
1650546163468.75,127.15189873417722,1340.6593406593406
1650546163469.995,127.15189873417722,1337.7289377289376
1650546163471.194,127.06941290950373,1340.6593406593406
1650546163485.024,127.06941290950373,1345.054945054945
1650546163509.938,127.06941290950373,1350.18315018315
1650546163510.1199,127.06941290950373,1356.0439560439559
1650546163511.2678,127.06941290950373,1364.102564102564
1650546163533.731,127.06941290950373,1375.8241758241757
1650546163534.0469,127.06941290950373,1387.5457875457876
1650546163535.085,127.06941290950373,1400.0
1650546163536.2908,127.06941290950373,1413.1868131868132
1650546163562.643,127.06941290950373,1429.3040293040292
1650546163563.681,127.06941290950373,1447.6190476190475
1650546163563.904,127.15189873417722,1464.4688644688645
1650546163588.94,126.98703403565641,1479.8534798534797
1650546163589.9949,126.98703403565641,1495.970695970696
1650546163590.2742,126.98703403565641,1509.89010989011
1650546163591.366,127.06941290950373,1522.3443223443223
1650546163605.557,126.98703403565641,1531.135531135531
1650546163632.508,126.98703403565641,1537.7289377289376
1650546163632.65,126.98703403565641,1538.4615384615383
1650546163633.878,127.06941290950373,1535.5311355311355
1650546163652.7568,126.98703403565641,1528.937728937729
1650546163654.095,126.98703403565641,1520.8791208791208
1650546163655.224,126.98703403565641,1509.1575091575091
1650546163655.3508,127.06941290950373,1495.970695970696
1650546163681.526,126.98703403565641,1483.5164835164835
1650546163682.529,126.98703403565641,1470.3296703296703
1650546163682.683,126.98703403565641,1457.142857142857
1650546163712.6602,126.98703403565641,1444.6886446886447
1650546163713.902,126.90476190476191,1432.9670329670328
1650546163721.386,126.98703403565641,1422.7106227106226
1650546163721.608,126.98703403565641,1411.7216117216117
1650546163722.7522,126.98703403565641,1405.8608058608058
1650546163724.0369,126.90476190476191,1400.7326007326005
1650546163754.14,126.98703403565641,1397.069597069597
1650546163775.353,126.98703403565641,1391.9413919413919
1650546163775.627,126.98703403565641,1391.2087912087911
1650546163776.536,126.90476190476191,1393.4065934065934
1650546163778.0671,126.90476190476191,1396.3369963369962
1650546163778.2358,126.98703403565641,1397.069597069597
1650546163778.933,127.06941290950373,1396.3369963369962
1650546163787.7258,126.90476190476191,1394.8717948717947
1650546163815.253,127.06941290950373,1394.139194139194
1650546163815.5251,127.15189873417722,1395.6043956043954
1650546163816.4958,127.2344917180903,1398.5347985347985
1650546163831.6082,127.2344917180903,1400.7326007326005
1650546163832.631,127.2344917180903,1402.9304029304028
1650546163832.766,127.31719207019825,1404.3956043956043
1650546163841.609,127.4,1408.058608058608
1650546163868.1719,127.31719207019825,1411.7216117216117
1650546163869.097,127.31719207019825,1415.3846153846152
1650546163889.086,127.48291571753987,1418.3150183150183
1650546163889.3381,127.56593943340931,1421.9780219780218
1650546163890.373,127.48291571753987,1425.6410256410256
1650546163891.674,127.64907135874878,1428.5714285714284
1650546163891.915,127.64907135874878,1428.5714285714284
1650546163905.7642,127.56593943340931,1427.8388278388277
1650546163930.382,127.73231170524943,1422.7106227106226
1650546163931.587,127.64907135874878,1418.3150183150183
1650546163951.646,127.73231170524943,1410.2564102564102
1650546163951.7888,127.73231170524943,1402.9304029304028
1650546163952.882,127.73231170524943,1398.5347985347985
1650546163954.01,127.73231170524943,1396.3369963369962
1650546163954.3518,127.73231170524943,1394.8717948717947
1650546163969.19,127.73231170524943,1394.8717948717947
1650546163995.511,127.73231170524943,1393.4065934065934
1650546163996.673,127.73231170524943,1392.6739926739926
1650546164017.8699,127.89911851126347,1389.0109890109889
1650546164018.061,127.89911851126347,1383.150183150183
1650546164019.227,127.89911851126347,1378.021978021978
1650546164020.3472,128.06636155606407,1374.3589743589744
1650546164020.4548,128.15014720314034,1375.091575091575
1650546164029.347,128.15014720314034,1375.8241758241757
1650546164055.4668,128.15014720314034,1378.021978021978
1650546164056.687,128.15014720314034,1381.6849816849815
1650546164056.884,128.15014720314034,1384.6153846153845
1650546164071.907,128.2340425531915,1388.278388278388
1650546164076.72,128.2340425531915,1392.6739926739926
1650546164082.0168,128.2340425531915,1397.8021978021977
1650546164082.1992,128.2340425531915,1400.7326007326005
1650546164113.7048,128.2340425531915,1401.4652014652013
1650546164114.285,128.31804782181462,1400.0
1650546164134.359,128.31804782181462,1397.8021978021977
1650546164135.427,128.31804782181462,1391.9413919413919
1650546164135.588,128.31804782181462,1385.3479853479853
1650546164136.782,128.31804782181462,1381.6849816849815
1650546164145.5269,128.31804782181462,1381.6849816849815
1650546164145.792,128.40216322517207,1382.4175824175823
1650546164171.9001,128.40216322517207,1384.6153846153845
1650546164173.281,128.40216322517207,1387.5457875457876
1650546164190.695,128.40216322517207,1391.9413919413919
1650546164191.831,128.40216322517207,1396.3369963369962
1650546164191.971,128.2340425531915,1399.2673992673992
1650546164193.033,128.40216322517207,1400.0
1650546164207.13,128.40216322517207,1400.0
1650546164207.325,128.40216322517207,1399.2673992673992
1650546164233.0862,128.40216322517207,1396.3369963369962
1650546164234.458,128.40216322517207,1395.6043956043954
1650546164259.482,128.48638897999345,1394.8717948717947
1650546164260.551,128.40216322517207,1391.9413919413919
1650546164260.735,128.40216322517207,1388.278388278388
1650546164264.463,128.40216322517207,1382.4175824175823
1650546164265.518,128.40216322517207,1378.021978021978
1650546164265.6829,128.48638897999345,1372.161172161172
1650546164294.85,128.40216322517207,1369.230769230769
1650546164295.66,128.5707253035773,1364.8351648351647
1650546164319.354,128.5707253035773,1363.3699633699632
1650546164319.5442,128.40216322517207,1360.4395604395604
1650546164320.6912,128.5707253035773,1359.7069597069597
1650546164321.96,128.5707253035773,1358.2417582417581
1650546164349.3308,128.5707253035773,1356.0439560439559
1650546164349.477,128.48638897999345,1355.3113553113553
1650546164350.73,128.5707253035773,1355.3113553113553
1650546164375.832,128.6551724137931,1353.8461538461538
1650546164376.933,128.6551724137931,1350.9157509157508
1650546164377.131,128.5707253035773,1349.4505494505493
1650546164378.19,128.5707253035773,1348.7179487179487
1650546164386.979,128.5707253035773,1349.4505494505493
1650546164415.722,128.5707253035773,1350.9157509157508
1650546164415.8708,128.6551724137931,1355.3113553113553
1650546164417.0278,128.6551724137931,1361.904761904762
1650546164438.264,128.6551724137931,1367.7655677655678
1650546164439.387,128.5707253035773,1372.161172161172
1650546164439.543,128.6551724137931,1374.3589743589744
1650546164440.737,128.6551724137931,1374.3589743589744
1650546164441.9949,128.5707253035773,1374.3589743589744
1650546164474.558,128.5707253035773,1373.6263736263736
1650546164474.78,128.5707253035773,1370.6959706959706
1650546164475.815,128.5707253035773,1369.230769230769
1650546164492.065,128.6551724137931,1367.7655677655678
1650546164493.167,128.5707253035773,1367.7655677655678
1650546164493.311,128.6551724137931,1367.7655677655678
1650546164494.527,128.5707253035773,1367.032967032967
1650546164508.328,128.6551724137931,1367.032967032967
1650546164533.3418,128.5707253035773,1364.102564102564
1650546164534.699,128.48638897999345,1363.3699633699632
1650546164534.988,128.5707253035773,1361.1721611721612
1650546164554.606,128.5707253035773,1363.3699633699632
1650546164555.826,128.5707253035773,1367.7655677655678
1650546164557.038,128.5707253035773,1376.5567765567764
1650546164557.168,128.48638897999345,1389.7435897435896
1650546164594.6729,128.48638897999345,1408.058608058608
1650546164595.779,128.40216322517207,1430.7692307692307
1650546164595.966,128.48638897999345,1457.142857142857
1650546164611.217,128.48638897999345,1484.2490842490843
1650546164612.129,128.40216322517207,1512.087912087912
1650546164613.364,128.40216322517207,1539.9267399267399
1650546164627.199,128.40216322517207,1563.3699633699632
1650546164627.6929,128.40216322517207,1582.4175824175823
1650546164628.3628,128.48638897999345,1597.8021978021977
1650546164660.839,128.40216322517207,1607.3260073260071
1650546164661.0378,128.48638897999345,1611.7216117216117
1650546164662.1611,128.48638897999345,1611.7216117216117
1650546164672.198,128.40216322517207,1607.3260073260071
1650546164673.412,128.40216322517207,1600.0
1650546164687.1992,128.40216322517207,1590.4761904761904
1650546164687.388,128.31804782181462,1578.021978021978
1650546164716.003,128.40216322517207,1560.4395604395604
1650546164717.169,128.40216322517207,1543.5897435897434
1650546164717.3171,128.40216322517207,1527.4725274725274
1650546164734.745,128.40216322517207,1512.087912087912
1650546164736.0671,128.40216322517207,1496.7032967032967
1650546164737.153,128.40216322517207,1483.5164835164835
1650546164737.243,128.40216322517207,1471.062271062271
1650546164762.27,128.31804782181462,1460.07326007326
1650546164763.491,128.31804782181462,1449.8168498168498
1650546164792.258,128.31804782181462,1442.4908424908424
1650546164792.449,128.40216322517207,1435.8974358974358
1650546164793.519,128.31804782181462,1432.2344322344322
1650546164794.7332,128.31804782181462,1428.5714285714284
1650546164796.0278,128.2340425531915,1426.3736263736262
1650546164809.702,128.31804782181462,1421.245421245421
1650546164809.895,128.2340425531915,1417.5824175824175
1650546164834.857,128.2340425531915,1410.989010989011
1650546164835.9202,128.15014720314034,1408.058608058608
1650546164836.03,128.2340425531915,1405.128205128205
1650546164861.103,128.06636155606407,1402.197802197802
1650546164862.519,128.06636155606407,1398.5347985347985
1650546164863.59,128.06636155606407,1393.4065934065934
1650546164888.647,128.06636155606407,1389.7435897435896
1650546164888.855,128.06636155606407,1386.080586080586
1650546164889.919,128.06636155606407,1384.6153846153845
1650546164916.016,127.98268539692911,1384.6153846153845
1650546164916.1912,127.98268539692911,1383.150183150183
1650546164917.372,127.89911851126347,1383.150183150183
1650546164919.934,127.98268539692911,1383.8827838827838
1650546164921.1409,127.81566068515498,1384.6153846153845
1650546164946.0571,127.81566068515498,1385.3479853479853
1650546164946.241,127.73231170524943,1386.080586080586
1650546164972.446,127.81566068515498,1388.278388278388
1650546164972.623,127.81566068515498,1389.7435897435896
1650546164986.37,127.73231170524943,1390.4761904761904
1650546164986.615,127.73231170524943,1389.0109890109889
1650546164987.4849,127.73231170524943,1387.5457875457876
1650546164988.649,127.73231170524943,1384.6153846153845
1650546164988.903,127.73231170524943,1380.952380952381
1650546165013.692,127.73231170524943,1377.2893772893772
1650546165014.959,127.73231170524943,1368.4981684981683
1650546165039.866,127.64907135874878,1358.974358974359
1650546165040.032,127.64907135874878,1349.4505494505493
1650546165041.2,127.73231170524943,1342.8571428571427
1650546165043.698,127.64907135874878,1339.9267399267399
1650546165076.2551,127.64907135874878,1337.7289377289376
1650546165077.361,127.64907135874878,1335.5311355311355
1650546165077.535,127.64907135874878,1331.135531135531
1650546165101.268,127.64907135874878,1325.2747252747251
1650546165102.416,127.64907135874878,1320.8791208791208
1650546165102.609,127.64907135874878,1316.4835164835165
1650546165103.7341,127.64907135874878,1312.087912087912
1650546165104.9858,127.64907135874878,1309.1575091575091
1650546165129.987,127.64907135874878,1307.6923076923076
1650546165130.227,127.64907135874878,1307.6923076923076
1650546165131.277,127.64907135874878,1308.4249084249084
1650546165157.5771,127.64907135874878,1311.3553113553112
1650546165158.6821,127.64907135874878,1315.7509157509157
1650546165158.8408,127.64907135874878,1322.3443223443223
1650546165167.6482,127.73231170524943,1331.135531135531
1650546165168.8992,127.64907135874878,1341.3919413919414
1650546165170.1301,127.56593943340931,1348.7179487179487
1650546165195.001,127.64907135874878,1354.5787545787546
1650546165195.2268,127.73231170524943,1360.4395604395604
1650546165196.346,127.73231170524943,1369.230769230769
1650546165221.245,127.64907135874878,1378.021978021978
1650546165221.436,127.64907135874878,1384.6153846153845
1650546165222.574,127.73231170524943,1390.4761904761904
1650546165252.6199,127.73231170524943,1395.6043956043954
1650546165253.728,127.73231170524943,1398.5347985347985
1650546165253.894,127.64907135874878,1397.8021978021977
1650546165255.094,127.73231170524943,1397.069597069597
1650546165256.336,127.73231170524943,1396.3369963369962
1650546165281.7358,127.64907135874878,1394.139194139194
1650546165281.9878,127.81566068515498,1389.7435897435896
1650546165282.687,127.81566068515498,1384.6153846153845
1650546165315.1792,127.73231170524943,1379.4871794871794
1650546165316.416,127.73231170524943,1374.3589743589744
1650546165338.826,127.81566068515498,1368.4981684981683
1650546165339.0132,127.81566068515498,1364.8351648351647
1650546165340.154,127.81566068515498,1358.974358974359
1650546165341.265,127.81566068515498,1355.3113553113553
1650546165341.381,127.89911851126347,1350.18315018315
1650546165342.726,127.89911851126347,1345.7875457875457
1650546165370.1938,127.98268539692911,1342.1245421245421
1650546165371.304,127.89911851126347,1339.194139194139
1650546165371.4731,127.98268539692911,1336.9963369963368
1650546165397.722,127.98268539692911,1336.263736263736
1650546165398.9402,127.98268539692911,1336.263736263736
1650546165402.584,128.06636155606407,1336.9963369963368
1650546165402.7551,128.06636155606407,1338.4615384615383
1650546165403.9358,128.15014720314034,1339.9267399267399
1650546165428.991,128.15014720314034,1344.3223443223442
1650546165430.094,128.06636155606407,1349.4505494505493
1650546165430.2622,128.15014720314034,1354.5787545787546
1650546165455.314,128.15014720314034,1358.974358974359
1650546165456.5188,128.15014720314034,1362.6373626373625
1650546165461.396,128.15014720314034,1367.032967032967
1650546165461.605,128.15014720314034,1371.4285714285713
1650546165462.844,128.2340425531915,1375.8241758241757
1650546165491.545,128.2340425531915,1378.7545787545787
1650546165492.744,128.2340425531915,1380.2197802197802
1650546165515.1628,128.31804782181462,1380.952380952381
1650546165515.5361,128.31804782181462,1380.952380952381
1650546165516.5762,128.31804782181462,1380.2197802197802
1650546165518.97,128.31804782181462,1376.5567765567764
1650546165519.177,128.31804782181462,1372.8937728937728
1650546165546.545,128.31804782181462,1369.9633699633698
1650546165547.793,128.40216322517207,1367.7655677655678
1650546165572.818,128.40216322517207,1367.032967032967
1650546165573.931,128.48638897999345,1366.3003663003662
1650546165574.077,128.31804782181462,1369.9633699633698
1650546165579.06,128.48638897999345,1375.8241758241757
1650546165580.187,128.40216322517207,1386.8131868131868
1650546165580.352,128.48638897999345,1402.9304029304028
1650546165605.351,128.48638897999345,1421.9780219780218
1650546165606.588,128.48638897999345,1443.2234432234432
1650546165632.951,128.5707253035773,1468.8644688644688
1650546165633.228,128.5707253035773,1494.5054945054944
1650546165634.332,128.5707253035773,1520.8791208791208
1650546165635.456,128.5707253035773,1547.2527472527472
1650546165644.011,128.5707253035773,1572.161172161172
1650546165644.1792,128.5707253035773,1594.139194139194
1650546165669.1538,128.5707253035773,1611.7216117216117
1650546165670.4111,128.6551724137931,1624.9084249084249
1650546165696.6838,128.5707253035773,1631.5018315018315
1650546165697.8408,128.5707253035773,1630.03663003663
1650546165698.141,128.6551724137931,1620.5128205128203
1650546165699.2139,128.6551724137931,1608.058608058608
1650546165707.811,128.6551724137931,1591.2087912087911
1650546165708.029,128.5707253035773,1569.230769230769
1650546165736.687,128.6551724137931,1544.3223443223442
1650546165737.907,128.73973052908315,1520.8791208791208
1650546165755.4678,128.6551724137931,1498.9010989010987
1650546165756.706,128.6551724137931,1477.6556776556777
1650546165756.8171,128.6551724137931,1459.3406593406592
1650546165757.934,128.5707253035773,1443.2234432234432
1650546165792.882,128.6551724137931,1429.3040293040292
1650546165793.081,128.6551724137931,1413.9194139194137
1650546165794.194,128.5707253035773,1402.9304029304028
1650546165810.451,128.5707253035773,1392.6739926739926
1650546165811.676,128.6551724137931,1384.6153846153845
1650546165811.83,128.6551724137931,1380.2197802197802
1650546165812.947,128.6551724137931,1374.3589743589744
1650546165822.652,128.6551724137931,1371.4285714285713
1650546165847.91,128.5707253035773,1370.6959706959706
1650546165849.2441,128.6551724137931,1369.230769230769
1650546165849.404,128.5707253035773,1369.9633699633698
1650546165874.26,128.6551724137931,1369.9633699633698
1650546165875.4832,128.5707253035773,1372.161172161172
1650546165884.28,128.6551724137931,1374.3589743589744
1650546165884.519,128.5707253035773,1380.2197802197802
1650546165885.702,128.5707253035773,1387.5457875457876
1650546165923.0361,128.5707253035773,1400.0
1650546165923.4631,128.48638897999345,1411.7216117216117
1650546165924.36,128.5707253035773,1424.9084249084249
1650546165936.814,128.6551724137931,1437.3626373626373
1650546165938.032,128.48638897999345,1449.084249084249
1650546165939.172,128.5707253035773,1458.6080586080584
1650546165939.3289,128.48638897999345,1465.201465201465
1650546165965.058,128.5707253035773,1468.131868131868
1650546165965.522,128.5707253035773,1471.7948717948716
1650546165965.7358,128.48638897999345,1472.5274725274724
1650546165990.594,128.5707253035773,1469.5970695970695
1650546165991.862,128.5707253035773,1465.9340659340658
1650546165998.009,128.5707253035773,1463.003663003663
1650546165998.291,128.5707253035773,1458.6080586080584
1650546165999.4111,128.5707253035773,1449.8168498168498
1650546166030.618,128.5707253035773,1438.8278388278388
1650546166054.276,128.48638897999345,1427.106227106227
1650546166054.465,128.6551724137931,1419.047619047619
1650546166055.6208,128.5707253035773,1410.989010989011
1650546166056.8992,128.5707253035773,1402.9304029304028
1650546166058.094,128.5707253035773,1395.6043956043954
1650546166059.281,128.6551724137931,1386.8131868131868
1650546166059.467,128.5707253035773,1378.7545787545787
1650546166090.657,128.6551724137931,1372.161172161172
1650546166091.796,128.5707253035773,1366.3003663003662
1650546166091.995,128.6551724137931,1361.904761904762
1650546166113.172,128.6551724137931,1357.5091575091574
1650546166114.421,128.6551724137931,1356.0439560439559
1650546166115.528,128.6551724137931,1356.0439560439559
1650546166115.651,128.73973052908315,1357.5091575091574
1650546166124.424,128.82439986846433,1357.5091575091574
1650546166149.686,128.82439986846433,1357.5091575091574
1650546166150.737,128.73973052908315,1356.7765567765566
1650546166151.022,128.9091806515301,1355.3113553113553
1650546166173.206,128.9091806515301,1354.5787545787546
1650546166174.4202,128.9091806515301,1354.5787545787546
1650546166175.666,128.9091806515301,1355.3113553113553
1650546166190.657,128.99407309845242,1356.7765567765566
1650546166190.912,128.82439986846433,1358.974358974359
1650546166217.095,128.99407309845242,1358.974358974359
1650546166235.628,128.9091806515301,1361.904761904762
1650546166235.801,128.99407309845242,1364.102564102564
1650546166236.96,128.9091806515301,1365.5677655677655
1650546166238.2458,128.99407309845242,1367.7655677655678
1650546166239.336,128.99407309845242,1369.9633699633698
1650546166239.48,128.9091806515301,1371.4285714285713
1650546166268.2742,128.9091806515301,1374.3589743589744
1650546166269.4958,128.99407309845242,1375.091575091575
1650546166294.417,128.99407309845242,1374.3589743589744
1650546166294.589,128.99407309845242,1371.4285714285713
1650546166295.753,128.99407309845242,1367.7655677655678
1650546166297.185,129.07907742998353,1367.032967032967
1650546166298.278,128.9091806515301,1367.032967032967
1650546166325.695,129.07907742998353,1365.5677655677655
1650546166325.8828,128.9091806515301,1364.8351648351647
1650546166327.0112,129.07907742998353,1361.1721611721612
1650546166355.9119,129.07907742998353,1358.974358974359
1650546166356.094,129.07907742998353,1356.7765567765566
1650546166357.04,129.07907742998353,1355.3113553113553
1650546166358.297,129.07907742998353,1354.5787545787546
1650546166359.496,128.99407309845242,1358.2417582417581
1650546166385.729,129.07907742998353,1361.1721611721612
1650546166385.925,128.99407309845242,1364.8351648351647
1650546166412.0942,129.07907742998353,1366.3003663003662
1650546166413.2048,128.99407309845242,1370.6959706959706
1650546166413.337,128.99407309845242,1373.6263736263736
1650546166420.829,128.99407309845242,1376.5567765567764
1650546166422.056,128.99407309845242,1378.021978021978
1650546166423.217,128.99407309845242,1378.7545787545787
1650546166423.385,128.99407309845242,1379.4871794871794
1650546166449.61,128.9091806515301,1379.4871794871794
1650546166450.857,128.99407309845242,1377.2893772893772
1650546166474.577,128.9091806515301,1375.8241758241757
1650546166474.7852,128.9091806515301,1371.4285714285713
1650546166476.014,128.9091806515301,1366.3003663003662
1650546166477.154,128.82439986846433,1357.5091575091574
1650546166513.261,128.73973052908315,1349.4505494505493
1650546166513.388,128.82439986846433,1341.3919413919414
1650546166514.7131,128.82439986846433,1336.9963369963368
1650546166537.2131,128.82439986846433,1334.7985347985348
1650546166538.361,128.5707253035773,1332.6007326007325
1650546166538.5872,128.73973052908315,1329.6703296703297
1650546166539.669,128.73973052908315,1324.5421245421244
1650546166540.874,128.6551724137931,1322.3443223443223
1650546166583.3262,128.5707253035773,1321.6117216117216
1650546166583.507,128.6551724137931,1323.076923076923
1650546166584.664,128.6551724137931,1323.8095238095236
1650546166585.928,128.5707253035773,1325.2747252747251
1650546166587.066,128.5707253035773,1326.7399267399267
1650546166587.2568,128.5707253035773,1330.4029304029302
1650546166593.417,128.48638897999345,1336.263736263736
1650546166602.178,128.48638897999345,1345.054945054945
1650546166634.5588,128.40216322517207,1356.7765567765566
1650546166634.6719,128.40216322517207,1367.7655677655678
1650546166635.936,128.40216322517207,1380.2197802197802
1650546166658.4539,128.31804782181462,1395.6043956043954
1650546166659.5818,128.2340425531915,1413.9194139194137
1650546166660.936,128.31804782181462,1434.4322344322343
1650546166661.109,128.2340425531915,1454.9450549450548
1650546166662.2231,128.2340425531915,1475.4578754578754
1650546166688.466,128.15014720314034,1498.168498168498
1650546166689.5881,128.2340425531915,1519.4139194139193
1650546166689.7522,128.15014720314034,1539.9267399267399
1650546166714.7678,128.2340425531915,1555.311355311355
1650546166715.875,128.06636155606407,1566.3003663003662
1650546166716.064,128.15014720314034,1569.9633699633698
1650546166720.275,128.06636155606407,1567.032967032967
1650546166725.982,128.15014720314034,1557.5091575091574
1650546166752.296,128.06636155606407,1543.5897435897434
1650546166753.378,128.15014720314034,1526.7399267399267
1650546166753.549,128.15014720314034,1507.6923076923076
1650546166778.569,128.15014720314034,1484.9816849816848
1650546166779.689,128.06636155606407,1458.6080586080584
1650546166779.902,128.06636155606407,1432.2344322344322
1650546166781.091,128.15014720314034,1406.5934065934066
1650546166811.038,128.15014720314034,1385.3479853479853
1650546166812.157,128.06636155606407,1368.4981684981683
1650546166812.317,128.06636155606407,1353.8461538461538
1650546166832.9302,128.06636155606407,1342.1245421245421
1650546166833.576,128.06636155606407,1332.6007326007325
1650546166834.7112,127.98268539692911,1323.8095238095236
1650546166834.89,128.15014720314034,1314.2857142857142
1650546166848.689,128.06636155606407,1306.9597069597069
1650546166849.879,128.06636155606407,1303.2967032967033
1650546166874.815,127.98268539692911,1299.6336996336995
1650546166875.952,128.06636155606407,1296.7032967032967
1650546166876.129,128.06636155606407,1293.7728937728937
1650546166896.065,128.06636155606407,1293.040293040293
1650546166898.458,127.98268539692911,1295.970695970696
1650546166898.58,128.06636155606407,1298.9010989010987
1650546166904.83,128.06636155606407,1304.7619047619046
1650546166932.343,128.06636155606407,1312.8205128205127
1650546166933.501,127.98268539692911,1321.6117216117216
1650546166933.713,128.15014720314034,1329.6703296703297
1650546166954.8691,128.06636155606407,1339.9267399267399
1650546166956.099,128.06636155606407,1348.7179487179487
1650546166957.236,127.98268539692911,1358.974358974359
1650546166957.4028,128.06636155606407,1367.7655677655678
1650546166971.188,127.98268539692911,1375.091575091575
1650546167004.3572,128.06636155606407,1379.4871794871794
1650546167004.619,127.98268539692911,1385.3479853479853
1650546167004.652,128.15014720314034,1391.9413919413919
1650546167016.302,128.06636155606407,1399.2673992673992
1650546167017.365,128.06636155606407,1404.3956043956043
1650546167018.7222,128.06636155606407,1405.8608058608058
1650546167018.94,128.06636155606407,1404.3956043956043
1650546167043.8818,127.98268539692911,1402.197802197802
1650546167044.993,128.06636155606407,1398.5347985347985
1650546167075.219,127.98268539692911,1395.6043956043954
1650546167076.135,128.06636155606407,1391.9413919413919
1650546167076.326,128.06636155606407,1391.2087912087911
1650546167077.589,128.15014720314034,1392.6739926739926
1650546167082.45,127.98268539692911,1395.6043956043954
1650546167082.7651,127.98268539692911,1397.8021978021977
1650546167113.802,128.15014720314034,1397.8021978021977
1650546167114.989,128.06636155606407,1397.069597069597
1650546167136.173,128.06636155606407,1394.139194139194
1650546167136.353,128.06636155606407,1390.4761904761904
1650546167137.389,128.15014720314034,1384.6153846153845
1650546167141.7761,128.15014720314034,1380.2197802197802
1650546167142.057,128.06636155606407,1378.021978021978
1650546167147.571,128.2340425531915,1375.8241758241757
1650546167172.456,128.2340425531915,1370.6959706959706
1650546167173.806,128.2340425531915,1364.8351648351647
1650546167196.274,128.15014720314034,1362.6373626373625
1650546167197.343,128.2340425531915,1358.974358974359
1650546167197.499,128.15014720314034,1357.5091575091574
1650546167198.748,128.31804782181462,1353.8461538461538
1650546167207.4949,128.2340425531915,1350.9157509157508
1650546167207.761,128.31804782181462,1347.985347985348
1650546167233.667,128.31804782181462,1343.5897435897434
1650546167267.986,128.40216322517207,1341.3919413919414
1650546167268.126,128.31804782181462,1337.7289377289376
1650546167268.199,128.40216322517207,1331.8681318681317
1650546167268.252,128.40216322517207,1325.2747252747251
1650546167268.312,128.48638897999345,1320.8791208791208
1650546167284.896,128.40216322517207,1318.6813186813185
1650546167285.013,128.40216322517207,1317.216117216117
1650546167286.244,128.48638897999345,1315.018315018315
1650546167313.825,128.48638897999345,1315.7509157509157
1650546167315.073,128.40216322517207,1315.7509157509157
1650546167321.357,128.40216322517207,1315.7509157509157
1650546167321.706,128.48638897999345,1315.018315018315
1650546167322.5378,128.48638897999345,1316.4835164835165
1650546167352.417,128.40216322517207,1316.4835164835165
1650546167352.559,128.31804782181462,1312.8205128205127
1650546167353.7969,128.31804782181462,1310.6227106227104
1650546167376.352,128.31804782181462,1309.89010989011
1650546167377.51,128.2340425531915,1312.087912087912
1650546167377.671,128.31804782181462,1313.5531135531135
1650546167378.819,128.40216322517207,1315.018315018315
1650546167380.091,128.31804782181462,1315.018315018315
1650546167406.306,128.15014720314034,1315.7509157509157
1650546167406.499,128.31804782181462,1314.2857142857142
1650546167407.5562,128.31804782181462,1313.5531135531135
1650546167434.029,128.2340425531915,1312.8205128205127
1650546167443.9312,128.15014720314034,1312.8205128205127
1650546167444.962,128.15014720314034,1312.087912087912
1650546167445.144,128.15014720314034,1309.89010989011
1650546167446.368,128.2340425531915,1307.6923076923076
1650546167471.4092,128.15014720314034,1305.4945054945053
1650546167471.77,128.15014720314034,1300.3663003663003
1650546167472.6912,128.06636155606407,1295.2380952380952
1650546167493.96,128.06636155606407,1289.3772893772893
1650546167494.2651,128.06636155606407,1284.9816849816848
1650546167494.334,127.98268539692911,1279.8534798534797
1650546167495.106,127.98268539692911,1273.9926739926739
1650546167508.958,127.89911851126347,1270.3296703296703
1650546167533.997,127.98268539692911,1265.2014652014652
1650546167534.406,127.89911851126347,1261.5384615384614
1650546167535.117,127.89911851126347,1260.8058608058607
1650546167553.977,127.89911851126347,1263.003663003663
1650546167555.416,127.81566068515498,1265.9340659340658
1650546167555.639,127.81566068515498,1267.3992673992673
1650546167561.402,127.81566068515498,1266.6666666666665
1650546167587.6318,127.81566068515498,1267.3992673992673
1650546167588.745,127.64907135874878,1268.8644688644688
1650546167588.881,127.81566068515498,1269.5970695970695
1650546167615.264,127.73231170524943,1271.062271062271
1650546167616.496,127.64907135874878,1273.260073260073
1650546167618.9849,127.73231170524943,1274.7252747252746
1650546167620.032,127.64907135874878,1276.923076923077
1650546167620.177,127.81566068515498,1279.8534798534797
1650546167650.1938,127.64907135874878,1284.2490842490843
1650546167651.291,127.73231170524943,1286.4468864468863
1650546167651.4321,127.73231170524943,1285.7142857142856
1650546167677.785,127.81566068515498,1282.7838827838827
1650546167679.1401,127.81566068515498,1282.051282051282
1650546167680.176,127.89911851126347,1282.7838827838827
1650546167688.8599,127.89911851126347,1284.9816849816848
1650546167689.032,127.98268539692911,1290.8424908424909
1650546167717.8481,127.98268539692911,1298.9010989010987
1650546167717.97,127.89911851126347,1310.6227106227104
1650546167718.0059,128.06636155606407,1328.2051282051282
1650546167737.834,128.2340425531915,1351.6483516483515
1650546167739.0562,128.31804782181462,1379.4871794871794
1650546167740.399,128.2340425531915,1408.7912087912086
1650546167765.688,128.2340425531915,1443.2234432234432
1650546167765.918,128.40216322517207,1478.3882783882782
1650546167765.9521,128.40216322517207,1512.8205128205127
1650546167792.657,128.40216322517207,1545.7875457875457
1650546167792.793,128.40216322517207,1572.8937728937728
1650546167793.9329,128.40216322517207,1594.8717948717947
1650546167795.267,128.48638897999345,1610.989010989011
1650546167796.536,128.48638897999345,1624.9084249084249
1650546167821.537,128.5707253035773,1632.2344322344322
1650546167821.8,128.5707253035773,1635.8974358974358
1650546167822.82,128.6551724137931,1635.164835164835
1650546167847.774,128.48638897999345,1630.03663003663
1650546167847.927,128.5707253035773,1619.7802197802196
1650546167849.57,128.5707253035773,1602.9304029304028
1650546167857.817,128.6551724137931,1583.150183150183
1650546167859.0332,128.48638897999345,1564.102564102564
1650546167895.206,128.5707253035773,1543.5897435897434
1650546167895.3618,128.5707253035773,1525.2747252747251
1650546167896.562,128.5707253035773,1509.1575091575091
1650546167915.189,128.48638897999345,1495.970695970696
1650546167915.364,128.48638897999345,1482.7838827838827
1650546167916.802,128.5707253035773,1471.7948717948716
1650546167919.019,128.5707253035773,1463.003663003663
1650546167926.561,128.48638897999345,1454.212454212454
1650546167926.799,128.48638897999345,1446.153846153846
1650546167960.366,128.48638897999345,1438.095238095238
1650546167961.7441,128.48638897999345,1432.2344322344322
1650546167976.5242,128.40216322517207,1428.5714285714284
1650546167976.657,128.40216322517207,1425.6410256410256
1650546167979.0708,128.40216322517207,1421.245421245421
1650546167980.289,128.40216322517207,1416.8498168498168
1650546167988.994,128.31804782181462,1414.6520146520145
1650546167989.1812,128.40216322517207,1410.989010989011
1650546168015.533,128.40216322517207,1408.058608058608
1650546168016.6199,128.40216322517207,1408.058608058608
1650546168034.059,128.2340425531915,1413.1868131868132
1650546168034.252,128.2340425531915,1419.7802197802198
1650546168035.469,128.2340425531915,1422.7106227106226
1650546168039.29,128.31804782181462,1425.6410256410256
1650546168067.792,128.15014720314034,1430.7692307692307
1650546168067.97,128.15014720314034,1436.6300366300366
1650546168069.097,128.06636155606407,1440.2930402930401
1650546168095.396,127.89911851126347,1446.153846153846
1650546168096.523,127.81566068515498,1452.7472527472526
1650546168096.7432,127.81566068515498,1457.8754578754579
1650546168101.63,127.81566068515498,1462.2710622710622
1650546168102.8071,127.81566068515498,1463.7362637362637
1650546168127.855,127.81566068515498,1462.2710622710622
1650546168128.144,127.81566068515498,1456.4102564102564
1650546168129.133,127.89911851126347,1452.014652014652
1650546168154.154,127.89911851126347,1446.153846153846
1650546168155.242,127.73231170524943,1439.5604395604394
1650546168155.377,127.89911851126347,1430.7692307692307
1650546168165.586,127.89911851126347,1420.5128205128203
1650546168165.72,127.89911851126347,1410.2564102564102
1650546168191.607,127.81566068515498,1402.9304029304028
1650546168191.8162,127.89911851126347,1394.8717948717947
1650546168192.916,127.81566068515498,1387.5457875457876
1650546168215.482,127.89911851126347,1379.4871794871794
1650546168216.582,127.89911851126347,1371.4285714285713
1650546168216.808,127.89911851126347,1363.3699633699632
1650546168217.9338,127.98268539692911,1356.7765567765566
1650546168231.689,127.98268539692911,1353.8461538461538
1650546168260.318,127.98268539692911,1352.3809523809523
1650546168260.4749,127.98268539692911,1350.9157509157508
1650546168261.659,127.98268539692911,1352.3809523809523
1650546168274.2031,127.98268539692911,1353.8461538461538
1650546168275.298,127.81566068515498,1358.2417582417581
1650546168275.5,127.89911851126347,1358.974358974359
1650546168276.7961,127.98268539692911,1356.7765567765566
1650546168291.066,127.89911851126347,1353.8461538461538
1650546168315.393,127.98268539692911,1350.18315018315
1650546168315.584,128.06636155606407,1347.2527472527472
1650546168316.659,128.06636155606407,1347.985347985348
1650546168341.736,128.06636155606407,1350.18315018315
1650546168342.839,128.06636155606407,1352.3809523809523
1650546168343.071,128.15014720314034,1353.8461538461538
1650546168346.676,128.15014720314034,1353.8461538461538
1650546168381.714,128.15014720314034,1352.3809523809523
1650546168382.8179,128.15014720314034,1352.3809523809523
1650546168382.942,128.15014720314034,1351.6483516483515
1650546168401.8918,128.15014720314034,1350.9157509157508
1650546168402.981,128.2340425531915,1349.4505494505493
1650546168404.119,128.15014720314034,1346.5201465201465
1650546168404.908,128.2340425531915,1342.1245421245421
1650546168405.404,128.31804782181462,1338.4615384615383
1650546168434.3618,128.31804782181462,1336.263736263736
1650546168435.3098,128.2340425531915,1335.5311355311355
1650546168435.44,128.2340425531915,1336.263736263736
1650546168460.5168,128.31804782181462,1336.9963369963368
1650546168461.7651,128.31804782181462,1339.194139194139
1650546168463.2139,128.2340425531915,1341.3919413919414
1650546168463.419,128.2340425531915,1342.8571428571427
1650546168464.262,128.31804782181462,1343.5897435897434
1650546168489.239,128.31804782181462,1342.1245421245421
1650546168490.5469,128.15014720314034,1341.3919413919414
1650546168513.03,128.2340425531915,1339.194139194139
1650546168513.206,128.31804782181462,1337.7289377289376
1650546168514.2852,128.31804782181462,1336.9963369963368
1650546168515.365,128.31804782181462,1336.9963369963368
1650546168515.504,128.2340425531915,1335.5311355311355
1650546168529.367,128.40216322517207,1331.8681318681317
1650546168555.742,128.31804782181462,1327.4725274725274
1650546168556.7861,128.31804782181462,1326.007326007326
1650546168557.014,128.31804782181462,1323.8095238095236
1650546168578.02,128.40216322517207,1323.076923076923
1650546168579.221,128.40216322517207,1322.3443223443223
1650546168580.442,128.2340425531915,1323.8095238095236
1650546168580.7039,128.31804782181462,1322.3443223443223
1650546168605.576,128.31804782181462,1324.5421245421244
1650546168606.828,128.40216322517207,1326.007326007326
1650546168633.087,128.40216322517207,1329.6703296703297
1650546168634.176,128.40216322517207,1331.135531135531
1650546168634.361,128.40216322517207,1332.6007326007325
1650546168639.395,128.40216322517207,1333.3333333333333
1650546168640.405,128.31804782181462,1334.065934065934
1650546168640.552,128.31804782181462,1334.065934065934
1650546168668.1262,128.40216322517207,1334.7985347985348
1650546168669.386,128.40216322517207,1334.7985347985348
1650546168695.587,128.40216322517207,1336.263736263736
1650546168696.7559,128.31804782181462,1335.5311355311355
1650546168696.943,128.40216322517207,1333.3333333333333
1650546168696.979,128.48638897999345,1333.3333333333333
1650546168704.196,128.40216322517207,1336.9963369963368
1650546168704.3591,128.48638897999345,1341.3919413919414
1650546168730.583,128.40216322517207,1348.7179487179487
1650546168731.773,128.48638897999345,1360.4395604395604
1650546168753.145,128.40216322517207,1375.8241758241757
1650546168754.246,128.40216322517207,1394.139194139194
1650546168754.3882,128.48638897999345,1419.7802197802198
1650546168755.62,128.48638897999345,1452.014652014652
1650546168769.24,128.40216322517207,1487.179487179487
1650546168769.423,128.48638897999345,1521.6117216117216
1650546168801.859,128.48638897999345,1556.7765567765566
1650546168803.049,128.48638897999345,1589.0109890109889
1650546168817.581,128.40216322517207,1616.8498168498168
1650546168817.949,128.40216322517207,1641.0256410256409
1650546168818.045,128.48638897999345,1659.3406593406592
1650546168819.3418,128.48638897999345,1673.9926739926739
1650546168848.1802,128.40216322517207,1679.8534798534797
1650546168848.429,128.48638897999345,1678.3882783882782
1650546168849.3591,128.48638897999345,1666.6666666666665
1650546168879.4392,128.48638897999345,1649.084249084249
1650546168879.669,128.40216322517207,1626.3736263736262
1650546168880.478,128.48638897999345,1601.4652014652013
1650546168880.6008,128.48638897999345,1575.091575091575
1650546168881.851,128.48638897999345,1548.7179487179485
1650546168906.796,128.48638897999345,1522.3443223443223
1650546168906.966,128.40216322517207,1497.4358974358972
1650546168908.084,128.5707253035773,1477.6556776556777
1650546168936.899,128.48638897999345,1461.5384615384614
1650546168938.201,128.48638897999345,1449.8168498168498
1650546168939.3188,128.48638897999345,1437.3626373626373
1650546168939.527,128.48638897999345,1425.6410256410256
1650546168948.138,128.5707253035773,1416.117216117216
1650546168979.333,128.48638897999345,1408.7912087912086
1650546168979.5872,128.48638897999345,1402.197802197802
1650546168980.699,128.48638897999345,1399.2673992673992
1650546168993.17,128.5707253035773,1397.8021978021977
1650546168994.448,128.48638897999345,1396.3369963369962
1650546168996.8381,128.48638897999345,1393.4065934065934
1650546168997.04,128.48638897999345,1392.6739926739926
1650546169012.667,128.48638897999345,1394.139194139194
1650546169041.869,128.48638897999345,1394.8717948717947
1650546169042.127,128.48638897999345,1397.8021978021977
1650546169043.143,128.48638897999345,1401.4652014652013
1650546169055.789,128.48638897999345,1405.8608058608058
1650546169056.914,128.48638897999345,1410.2564102564102
1650546169058.084,128.48638897999345,1416.117216117216
1650546169058.294,128.5707253035773,1420.5128205128203
1650546169072.54,128.40216322517207,1427.106227106227
1650546169098.115,128.48638897999345,1432.2344322344322
1650546169098.3,128.48638897999345,1436.6300366300366
1650546169116.987,128.48638897999345,1440.2930402930401
1650546169118.161,128.5707253035773,1442.4908424908424
1650546169119.3909,128.5707253035773,1444.6886446886447
1650546169119.569,128.5707253035773,1444.6886446886447
1650546169125.8062,128.5707253035773,1442.4908424908424
1650546169150.783,128.5707253035773,1441.7582417582416
1650546169152.116,128.48638897999345,1434.4322344322343
1650546169152.3572,128.5707253035773,1424.1758241758241
1650546169177.1072,128.5707253035773,1414.6520146520145
1650546169178.209,128.40216322517207,1408.058608058608
1650546169181.5679,128.5707253035773,1403.6630036630036
1650546169181.7678,128.48638897999345,1397.8021978021977
1650546169188.29,128.5707253035773,1393.4065934065934
1650546169217.083,128.5707253035773,1389.0109890109889
1650546169238.115,128.48638897999345,1384.6153846153845
1650546169238.2678,128.5707253035773,1380.2197802197802
1650546169239.419,128.5707253035773,1374.3589743589744
1650546169240.697,128.5707253035773,1366.3003663003662
1650546169241.947,128.48638897999345,1356.0439560439559
1650546169250.691,128.48638897999345,1341.3919413919414
1650546169250.936,128.5707253035773,1326.007326007326
1650546169275.777,128.5707253035773,1313.5531135531135
1650546169276.8108,128.48638897999345,1304.7619047619046
1650546169276.925,128.5707253035773,1296.7032967032967
1650546169296.0068,128.5707253035773,1290.8424908424909
1650546169297.0322,128.48638897999345,1287.9120879120878
1650546169298.2322,128.5707253035773,1287.9120879120878
1650546169329.377,128.5707253035773,1291.5750915750914
1650546169329.535,128.5707253035773,1298.168498168498
1650546169330.7458,128.5707253035773,1304.7619047619046
1650546169353.102,128.48638897999345,1312.087912087912
1650546169353.2341,128.5707253035773,1316.4835164835165
1650546169354.517,128.40216322517207,1321.6117216117216
1650546169355.762,128.5707253035773,1324.5421245421244
1650546169369.407,128.48638897999345,1328.2051282051282
1650546169369.592,128.48638897999345,1328.937728937729
1650546169370.7212,128.48638897999345,1327.4725274725274
1650546169403.31,128.48638897999345,1330.4029304029302
1650546169408.208,128.48638897999345,1334.065934065934
1650546169408.4092,128.5707253035773,1335.5311355311355
1650546169417.646,128.5707253035773,1336.9963369963368
1650546169419.1438,128.5707253035773,1338.4615384615383
1650546169426.981,128.48638897999345,1336.263736263736
1650546169453.155,128.48638897999345,1334.065934065934
1650546169453.298,128.48638897999345,1332.6007326007325
1650546169454.541,128.5707253035773,1331.135531135531
1650546169475.6428,128.48638897999345,1331.135531135531
1650546169475.84,128.48638897999345,1329.6703296703297
1650546169476.9531,128.5707253035773,1329.6703296703297
1650546169478.3071,128.5707253035773,1331.135531135531
1650546169491.963,128.48638897999345,1329.6703296703297
1650546169492.137,128.5707253035773,1325.2747252747251
1650546169532.114,128.5707253035773,1320.14652014652
1650546169533.2761,128.5707253035773,1315.018315018315
1650546169534.537,128.48638897999345,1311.3553113553112
1650546169534.7422,128.48638897999345,1306.9597069597069
1650546169535.785,128.48638897999345,1306.227106227106
1650546169544.5508,128.5707253035773,1306.9597069597069
1650546169550.889,128.48638897999345,1310.6227106227104
1650546169575.752,128.5707253035773,1312.087912087912
1650546169575.9758,128.5707253035773,1312.8205128205127
1650546169602.031,128.5707253035773,1312.087912087912
1650546169602.171,128.48638897999345,1311.3553113553112
1650546169602.203,128.48638897999345,1308.4249084249084
1650546169603.2578,128.48638897999345,1306.9597069597069
1650546169607.0261,128.5707253035773,1306.9597069597069
1650546169631.958,128.48638897999345,1306.227106227106
1650546169632.118,128.48638897999345,1306.227106227106
1650546169633.3188,128.5707253035773,1307.6923076923076
1650546169661.907,128.48638897999345,1309.1575091575091
1650546169662.123,128.40216322517207,1312.8205128205127
1650546169662.162,128.48638897999345,1315.7509157509157
1650546169665.976,128.5707253035773,1320.14652014652
1650546169667.0671,128.5707253035773,1320.14652014652
1650546169693.389,128.48638897999345,1320.8791208791208
1650546169693.741,128.5707253035773,1320.8791208791208
1650546169694.578,128.5707253035773,1321.6117216117216
1650546169719.5771,128.40216322517207,1320.8791208791208
1650546169725.6528,128.48638897999345,1319.4139194139193
1650546169725.881,128.5707253035773,1317.9487179487178
1650546169725.943,128.5707253035773,1316.4835164835165
1650546169725.979,128.5707253035773,1315.7509157509157
1650546169752.3142,128.48638897999345,1315.7509157509157
1650546169753.21,128.5707253035773,1312.8205128205127
1650546169753.346,128.5707253035773,1312.8205128205127
1650546169778.379,128.5707253035773,1313.5531135531135
1650546169779.418,128.48638897999345,1315.018315018315
1650546169779.513,128.5707253035773,1315.018315018315
1650546169785.919,128.5707253035773,1316.4835164835165
1650546169787.143,128.5707253035773,1319.4139194139193
1650546169813.365,128.48638897999345,1324.5421245421244
1650546169814.495,128.5707253035773,1333.3333333333333
1650546169814.6191,128.5707253035773,1346.5201465201465
1650546169840.982,128.5707253035773,1365.5677655677655
1650546169841.989,128.40216322517207,1390.4761904761904
1650546169842.15,128.48638897999345,1420.5128205128203
1650546169844.692,128.48638897999345,1456.4102564102564
1650546169877.1218,128.48638897999345,1496.7032967032967
1650546169878.355,128.40216322517207,1539.9267399267399
1650546169900.759,128.48638897999345,1580.9523809523807
1650546169900.91,128.48638897999345,1621.9780219780218
1650546169902.057,128.5707253035773,1659.3406593406592
1650546169902.243,128.40216322517207,1691.5750915750914
1650546169902.29,128.48638897999345,1713.5531135531135
1650546169903.341,128.5707253035773,1724.5421245421244
1650546169929.6638,128.48638897999345,1728.937728937729
1650546169930.784,128.48638897999345,1723.0769230769229
1650546169930.978,128.48638897999345,1709.8901098901097
1650546169957.13,128.5707253035773,1687.9120879120878
1650546169958.449,128.48638897999345,1661.5384615384614
1650546169968.2769,128.48638897999345,1631.5018315018315
1650546169968.4092,128.48638897999345,1598.5347985347985
1650546169969.635,128.5707253035773,1565.5677655677655
1650546169994.741,128.5707253035773,1535.5311355311355
1650546169995.7869,128.48638897999345,1507.6923076923076
1650546169995.951,128.5707253035773,1483.5164835164835
1650546170022.1838,128.48638897999345,1463.003663003663
1650546170023.3918,128.40216322517207,1448.3516483516482
1650546170024.556,128.48638897999345,1435.8974358974358
1650546170024.6921,128.48638897999345,1427.106227106227
1650546170030.938,128.5707253035773,1421.245421245421
1650546170055.9238,128.5707253035773,1415.3846153846152
1650546170056.9949,128.48638897999345,1412.4542124542124
1650546170057.12,128.48638897999345,1409.5238095238094
1650546170080.885,128.5707253035773,1408.058608058608
1650546170082.217,128.5707253035773,1408.058608058608
1650546170083.29,128.48638897999345,1409.5238095238094
1650546170083.462,128.5707253035773,1408.7912087912086
1650546170108.5068,128.40216322517207,1410.2564102564102
1650546170109.883,128.5707253035773,1410.989010989011
1650546170134.5562,128.48638897999345,1413.9194139194137
1650546170134.718,128.48638897999345,1419.047619047619
1650546170135.9192,128.5707253035773,1422.7106227106226
1650546170148.491,128.48638897999345,1428.5714285714284
1650546170174.5452,128.48638897999345,1433.6996336996335
1650546170174.667,128.48638897999345,1435.164835164835
1650546170175.889,128.40216322517207,1437.3626373626373
1650546170200.9348,128.48638897999345,1442.4908424908424
1650546170202.163,128.48638897999345,1446.153846153846
1650546170207.1719,128.48638897999345,1447.6190476190475
1650546170207.428,128.40216322517207,1449.8168498168498
1650546170208.447,128.48638897999345,1450.5494505494505
1650546170209.613,128.40216322517207,1451.2820512820513
1650546170209.759,128.48638897999345,1449.084249084249
1650546170234.725,128.48638897999345,1444.6886446886447
1650546170235.893,128.48638897999345,1436.6300366300366
1650546170260.9329,128.40216322517207,1427.8388278388277
1650546170262.045,128.48638897999345,1416.8498168498168
1650546170262.167,128.48638897999345,1405.8608058608058
1650546170263.4548,128.48638897999345,1393.4065934065934
1650546170272.1702,128.40216322517207,1383.150183150183
1650546170272.443,128.31804782181462,1375.091575091575
1650546170297.272,128.48638897999345,1367.032967032967
1650546170301.689,128.48638897999345,1359.7069597069597
1650546170321.082,128.40216322517207,1356.0439560439559
1650546170322.286,128.40216322517207,1350.9157509157508
1650546170322.469,128.40216322517207,1347.2527472527472
1650546170323.407,128.48638897999345,1343.5897435897434
1650546170352.073,128.40216322517207,1342.8571428571427
1650546170352.209,128.40216322517207,1340.6593406593406
1650546170353.383,128.40216322517207,1337.7289377289376
1650546170376.07,128.48638897999345,1334.7985347985348
1650546170377.069,128.40216322517207,1333.3333333333333
1650546170377.23,128.48638897999345,1331.8681318681317
1650546170378.461,128.48638897999345,1331.135531135531
1650546170387.279,128.40216322517207,1330.4029304029302
1650546170413.333,128.40216322517207,1331.135531135531
1650546170413.512,128.31804782181462,1331.135531135531
1650546170414.685,128.40216322517207,1331.135531135531
1650546170435.991,128.31804782181462,1328.2051282051282
1650546170437.217,128.40216322517207,1328.937728937729
1650546170439.606,128.31804782181462,1329.6703296703297
1650546170439.795,128.2340425531915,1333.3333333333333
1650546170447.302,128.40216322517207,1334.065934065934
1650546170477.129,128.31804782181462,1338.4615384615383
1650546170477.305,128.40216322517207,1340.6593406593406
1650546170478.411,128.40216322517207,1343.5897435897434
1650546170496.095,128.40216322517207,1345.054945054945
1650546170497.139,128.31804782181462,1345.054945054945
1650546170497.24,128.31804782181462,1343.5897435897434
1650546170498.491,128.40216322517207,1339.194139194139
1650546170512.317,128.40216322517207,1336.263736263736
1650546170547.1858,128.31804782181462,1335.5311355311355
1650546170547.3062,128.40216322517207,1332.6007326007325
1650546170548.485,128.40216322517207,1329.6703296703297
1650546170552.319,128.31804782181462,1326.007326007326
1650546170553.629,128.31804782181462,1320.8791208791208
1650546170565.2139,128.31804782181462,1315.018315018315
1650546170565.397,128.31804782181462,1312.087912087912
1650546170587.239,128.31804782181462,1312.087912087912
1650546170588.339,128.2340425531915,1313.5531135531135
1650546170588.475,128.31804782181462,1313.5531135531135
1650546170613.561,128.31804782181462,1314.2857142857142
1650546170614.815,128.31804782181462,1315.7509157509157
1650546170621.0188,128.2340425531915,1316.4835164835165
1650546170622.1362,128.2340425531915,1316.4835164835165
1650546170622.274,128.31804782181462,1316.4835164835165
1650546170652.257,128.31804782181462,1312.8205128205127
1650546170653.372,128.15014720314034,1311.3553113553112
1650546170653.523,128.2340425531915,1309.1575091575091
1650546170673.506,128.2340425531915,1306.9597069597069
1650546170674.802,128.2340425531915,1305.4945054945053
1650546170676.107,128.2340425531915,1305.4945054945053
1650546170676.237,128.2340425531915,1304.7619047619046
1650546170689.877,128.15014720314034,1306.9597069597069
1650546170717.25,128.2340425531915,1309.89010989011
1650546170718.568,128.15014720314034,1312.087912087912
1650546170718.801,128.2340425531915,1312.087912087912
1650546170734.7952,128.2340425531915,1311.3553113553112
1650546170735.974,128.2340425531915,1312.087912087912
1650546170737.133,128.15014720314034,1312.087912087912
1650546170737.266,128.15014720314034,1311.3553113553112
1650546170750.983,128.15014720314034,1310.6227106227104
1650546170775.9841,128.2340425531915,1310.6227106227104
1650546170777.12,128.15014720314034,1312.087912087912
1650546170777.261,128.2340425531915,1311.3553113553112
1650546170797.2651,128.2340425531915,1312.087912087912
1650546170803.639,128.15014720314034,1313.5531135531135
1650546170804.709,128.15014720314034,1314.2857142857142
1650546170804.827,128.15014720314034,1315.018315018315
1650546170832.3928,128.2340425531915,1315.018315018315
1650546170833.584,128.2340425531915,1314.2857142857142
1650546170858.891,128.15014720314034,1313.5531135531135
1650546170859.0642,128.06636155606407,1313.5531135531135
1650546170859.74,128.15014720314034,1314.2857142857142
1650546170863.55,128.2340425531915,1316.4835164835165
1650546170864.791,128.06636155606407,1319.4139194139193
1650546170890.9358,128.06636155606407,1319.4139194139193
1650546170891.185,128.15014720314034,1319.4139194139193
1650546170892.374,128.15014720314034,1320.14652014652
1650546170917.268,128.06636155606407,1322.3443223443223
1650546170917.5562,128.06636155606407,1325.2747252747251
1650546170918.569,128.15014720314034,1330.4029304029302
1650546170919.842,128.06636155606407,1338.4615384615383
1650546170928.584,128.06636155606407,1351.6483516483515
1650546170957.297,128.06636155606407,1367.7655677655678
1650546170957.6099,128.06636155606407,1391.9413919413919
1650546170958.534,128.06636155606407,1420.5128205128203
1650546170974.665,128.06636155606407,1454.9450549450548
1650546170974.78,127.98268539692911,1493.7728937728937
1650546170975.986,128.06636155606407,1536.9963369963368
1650546170977.232,128.06636155606407,1577.2893772893772
1650546170991.19,127.98268539692911,1616.8498168498168
1650546171019.694,128.06636155606407,1649.084249084249
1650546171019.881,127.98268539692911,1675.4578754578754
1650546171021.019,128.06636155606407,1693.7728937728937
1650546171031.009,127.98268539692911,1705.4945054945053
1650546171031.2632,127.98268539692911,1709.1575091575091
1650546171032.335,128.06636155606407,1703.296703296703
1650546171046.0168,127.98268539692911,1690.10989010989
1650546171047.232,127.89911851126347,1671.7948717948716
1650546171047.448,127.98268539692911,1647.6190476190475
1650546171072.288,127.98268539692911,1619.047619047619
1650546171073.525,127.98268539692911,1588.278388278388
1650546171095.9102,127.89911851126347,1557.5091575091574
1650546171096.038,127.98268539692911,1526.7399267399267
1650546171097.324,127.98268539692911,1498.168498168498
1650546171102.349,127.98268539692911,1471.7948717948716
1650546171134.856,127.89911851126347,1450.5494505494505
1650546171135.986,127.98268539692911,1434.4322344322343
1650546171136.2258,127.98268539692911,1421.245421245421
1650546171161.0862,127.98268539692911,1410.989010989011
1650546171162.507,127.89911851126347,1403.6630036630036
1650546171162.6738,127.89911851126347,1398.5347985347985
1650546171164.833,127.98268539692911,1393.4065934065934
1650546171166.014,127.98268539692911,1387.5457875457876
1650546171194.685,127.73231170524943,1383.8827838827838
1650546171194.822,127.89911851126347,1378.7545787545787
1650546171196.021,127.89911851126347,1375.091575091575
1650546171216.047,127.89911851126347,1372.8937728937728
1650546171221.603,127.89911851126347,1372.161172161172
1650546171221.812,127.89911851126347,1372.161172161172
1650546171221.869,127.89911851126347,1373.6263736263736
1650546171247.302,127.98268539692911,1375.8241758241757
1650546171248.5918,127.81566068515498,1381.6849816849815
1650546171248.781,127.81566068515498,1387.5457875457876
1650546171279.843,127.89911851126347,1394.8717948717947
1650546171280.959,127.89911851126347,1403.6630036630036
1650546171281.083,127.89911851126347,1413.1868131868132
1650546171281.127,127.89911851126347,1420.5128205128203
1650546171283.571,127.89911851126347,1424.1758241758241
1650546171292.376,127.89911851126347,1427.8388278388277
1650546171324.792,127.81566068515498,1428.5714285714284
1650546171324.925,127.89911851126347,1424.9084249084249
1650546171326.072,127.89911851126347,1421.9780219780218
1650546171336.202,127.89911851126347,1419.047619047619
1650546171337.6292,127.73231170524943,1416.117216117216
1650546171337.769,127.81566068515498,1411.7216117216117
1650546171342.34,127.89911851126347,1406.5934065934066
1650546171372.439,127.89911851126347,1399.2673992673992
1650546171373.565,127.81566068515498,1394.139194139194
1650546171373.7349,127.81566068515498,1389.0109890109889
1650546171391.212,127.81566068515498,1382.4175824175823
1650546171392.4192,127.81566068515498,1375.091575091575
1650546171393.645,127.73231170524943,1367.7655677655678
1650546171393.82,127.89911851126347,1357.5091575091574
1650546171407.307,127.73231170524943,1350.18315018315
1650546171438.611,127.89911851126347,1343.5897435897434
1650546171439.835,127.73231170524943,1338.4615384615383
1650546171463.0178,127.81566068515498,1332.6007326007325
1650546171463.1418,127.81566068515498,1326.7399267399267
1650546171463.516,127.81566068515498,1320.8791208791208
1650546171464.655,127.81566068515498,1316.4835164835165
1650546171464.76,127.73231170524943,1312.087912087912
1650546171466.0251,127.81566068515498,1306.9597069597069
1650546171494.859,127.73231170524943,1304.7619047619046
1650546171496.055,127.73231170524943,1302.5641025641025
1650546171518.482,127.81566068515498,1301.098901098901
1650546171518.6392,127.81566068515498,1298.9010989010987
1650546171519.938,127.73231170524943,1295.970695970696
1650546171520.977,127.73231170524943,1293.7728937728937
1650546171521.086,127.81566068515498,1292.3076923076922
1650546171532.318,127.73231170524943,1292.3076923076922
1650546171559.9612,127.81566068515498,1294.5054945054944
1650546171560.947,127.73231170524943,1296.7032967032967
1650546171561.041,127.73231170524943,1297.4358974358975
1650546171576.201,127.73231170524943,1300.3663003663003
1650546171577.33,127.81566068515498,1303.2967032967033
1650546171582.31,127.73231170524943,1306.9597069597069
1650546171583.147,127.73231170524943,1309.1575091575091
1650546171607.689,127.81566068515498,1309.89010989011
1650546171608.574,127.81566068515498,1309.89010989011
1650546171637.423,127.73231170524943,1310.6227106227104
1650546171638.5,127.73231170524943,1313.5531135531135
1650546171638.629,127.81566068515498,1316.4835164835165
1650546171638.667,127.81566068515498,1317.216117216117
1650546171644.707,127.73231170524943,1317.216117216117
1650546171644.815,127.81566068515498,1314.2857142857142
1650546171673.736,127.81566068515498,1310.6227106227104
1650546171674.86,127.73231170524943,1306.9597069597069
1650546171696.289,127.73231170524943,1303.2967032967033
1650546171697.201,127.73231170524943,1301.8315018315018
1650546171697.324,127.73231170524943,1301.8315018315018
1650546171698.552,127.73231170524943,1298.9010989010987
1650546171707.323,127.73231170524943,1295.970695970696
1650546171707.54,127.73231170524943,1293.7728937728937
1650546171732.463,127.73231170524943,1289.3772893772893
1650546171733.5862,127.73231170524943,1286.4468864468863
1650546171758.675,127.64907135874878,1283.5164835164835
1650546171759.761,127.81566068515498,1281.3186813186812
1650546171759.9658,127.73231170524943,1282.7838827838827
1650546171761.2231,127.73231170524943,1280.5860805860805
1650546171769.841,127.64907135874878,1278.3882783882782
1650546171770.026,127.73231170524943,1276.923076923077
1650546171798.658,127.73231170524943,1277.6556776556777
1650546171799.836,127.73231170524943,1278.3882783882782
1650546171816.118,127.64907135874878,1280.5860805860805
1650546171817.225,127.73231170524943,1282.051282051282
1650546171817.43,127.64907135874878,1283.5164835164835
1650546171818.706,127.73231170524943,1285.7142857142856
1650546171832.251,127.64907135874878,1287.9120879120878
1650546171832.418,127.73231170524943,1288.6446886446886
1650546171858.648,127.73231170524943,1288.6446886446886
1650546171877.371,127.73231170524943,1290.10989010989
1650546171878.553,127.64907135874878,1290.8424908424909
1650546171879.6958,127.73231170524943,1289.3772893772893
1650546171879.828,127.73231170524943,1290.8424908424909
1650546171904.876,127.73231170524943,1292.3076923076922
1650546171906.002,127.64907135874878,1296.7032967032967
1650546171906.167,127.73231170524943,1298.9010989010987
1650546171906.204,127.73231170524943,1301.098901098901
1650546171931.129,127.73231170524943,1301.8315018315018
1650546171932.294,127.64907135874878,1304.0293040293038
1650546171932.509,127.73231170524943,1305.4945054945053
1650546171937.5862,127.73231170524943,1308.4249084249084
1650546171951.152,127.64907135874878,1312.087912087912
1650546171952.217,127.64907135874878,1315.018315018315
1650546171952.404,127.73231170524943,1317.216117216117
1650546171977.408,127.73231170524943,1317.216117216117
1650546171978.553,127.73231170524943,1317.216117216117
1650546171999.861,127.64907135874878,1316.4835164835165
1650546172000.174,127.73231170524943,1317.216117216117
1650546172001.111,127.73231170524943,1318.6813186813185
1650546172010.041,127.73231170524943,1320.8791208791208
1650546172034.739,127.64907135874878,1328.2051282051282
1650546172034.908,127.64907135874878,1339.9267399267399
1650546172036.0789,127.73231170524943,1355.3113553113553
1650546172058.644,127.73231170524943,1375.091575091575
1650546172060.293,127.64907135874878,1400.7326007326005
1650546172060.51,127.73231170524943,1432.2344322344322
1650546172061.046,127.73231170524943,1471.062271062271
1650546172087.3462,127.73231170524943,1513.5531135531135
1650546172088.4958,127.64907135874878,1556.0439560439559
1650546172088.622,127.73231170524943,1598.5347985347985
1650546172113.728,127.73231170524943,1638.095238095238
1650546172114.893,127.64907135874878,1672.5274725274724
1650546172125.3718,127.64907135874878,1697.4358974358972
1650546172125.963,127.73231170524943,1714.2857142857142
1650546172126.2131,127.73231170524943,1722.3443223443223
1650546172153.2239,127.73231170524943,1721.6117216117216
1650546172153.471,127.64907135874878,1711.3553113553112
1650546172153.6611,127.73231170524943,1693.7728937728937
1650546172178.632,127.73231170524943,1668.131868131868
