Timestamp,GSR,PPG
1650662029342.758,332.56363636363636,0.0
1650662029343.0632,332.56363636363636,0.0
1650662029372.663,332.56363636363636,0.7326007326007326
1650662029373.864,332.56363636363636,0.0
1650662029375.151,332.56363636363636,0.0
1650662029375.306,332.56363636363636,0.0
1650662029406.32,332.56363636363636,0.0
1650662029406.48,332.56363636363636,0.0
1650662029421.3071,388.2606541129831,0.0
1650662029421.54,388.2606541129831,0.0
1650662029422.582,388.2606541129831,0.0
1650662029431.326,388.2606541129831,0.0
1650662029439.976,388.2606541129831,0.0
1650662029440.1099,388.2606541129831,0.0
1650662029465.104,388.2606541129831,0.0
1650662029466.1912,388.2606541129831,0.0
1650662029487.509,388.2606541129831,0.0
1650662029487.728,388.2606541129831,0.0
1650662029488.76,388.2606541129831,0.0
1650662029489.949,388.5567890691716,0.0
1650662029490.1309,388.5567890691716,0.0
1650662029516.254,388.33570412517776,0.0
1650662029517.455,388.33570412517776,0.0
1650662029542.361,388.5567890691716,0.0
1650662029543.548,388.33570412517776,0.0
1650662029543.627,388.33570412517776,0.0
1650662029555.0798,388.33570412517776,0.0
1650662029556.057,388.33570412517776,0.0
1650662029581.169,388.33570412517776,0.0
1650662029581.391,388.33570412517776,0.0
1650662029582.436,388.33570412517776,0.0
1650662029606.0432,388.33570412517776,0.0
1650662029607.269,388.1148706283764,0.0
1650662029607.379,388.33570412517776,0.0
1650662029608.5962,388.1148706283764,0.0
1650662029617.281,388.33570412517776,0.0
1650662029617.424,388.1148706283764,0.0
1650662029652.51,388.1148706283764,0.0
1650662029653.6602,388.1148706283764,0.0
1650662029661.16,388.1148706283764,0.0
1650662029662.2341,388.1148706283764,0.0
1650662029662.393,388.1148706283764,0.0
1650662029671.113,388.1148706283764,0.0
1650662029679.757,388.1148706283764,0.0
1650662029716.045,387.8942881500426,0.0
1650662029716.285,388.33570412517776,0.0
1650662029717.234,388.1148706283764,0.0
1650662029718.3599,388.1148706283764,0.0
1650662029719.698,387.8942881500426,0.0
1650662029719.7822,388.1148706283764,0.0
1650662029733.5588,387.8942881500426,0.0
1650662029761.048,388.33570412517776,0.0
1650662029762.169,387.8942881500426,0.0
1650662029762.314,388.33570412517776,0.0
1650662029779.777,387.8942881500426,0.0
1650662029780.8389,388.1148706283764,0.0
1650662029782.55,387.8942881500426,0.0
1650662029782.774,387.6739562624254,0.0
1650662029797.2651,387.8942881500426,0.0
1650662029834.757,388.1148706283764,0.0
1650662029835.956,387.6739562624254,0.0
1650662029836.366,387.6739562624254,0.0
1650662029837.2332,387.45387453874537,0.0
1650662029838.31,387.6739562624254,0.0
1650662029847.1711,387.45387453874537,0.0
1650662029847.466,387.45387453874537,0.0
1650662029855.963,387.45387453874537,0.0
1650662029883.5198,387.45387453874537,0.0
1650662029884.708,387.45387453874537,0.0
1650662029884.9421,387.45387453874537,0.0
1650662029898.44,387.23404255319144,0.0
1650662029899.551,387.45387453874537,0.0
1650662029899.7,387.0144598809186,0.0
1650662029908.406,387.23404255319144,0.0
1650662029933.381,387.23404255319144,0.0
1650662029934.4932,387.23404255319144,0.0
1650662029960.738,387.23404255319144,0.0
1650662029960.935,387.23404255319144,0.0
1650662029962.064,387.45387453874537,0.0
1650662029963.2002,387.23404255319144,0.0
1650662029971.989,386.79512609804476,0.0
1650662029972.2139,387.23404255319144,0.0
1650662030000.839,387.0144598809186,0.0
1650662030001.899,387.0144598809186,0.0
1650662030001.992,387.0144598809186,0.0
1650662030017.038,387.0144598809186,0.0
1650662030018.219,387.0144598809186,0.0
1650662030019.492,387.0144598809186,0.0
1650662030033.184,386.79512609804476,0.0
1650662030033.378,387.0144598809186,0.0
1650662030059.5479,387.0144598809186,0.0
1650662030060.758,387.0144598809186,0.0
1650662030081.886,386.79512609804476,0.0
1650662030082.0588,386.79512609804476,0.0
1650662030083.252,386.79512609804476,0.0
1650662030084.445,386.79512609804476,0.0
1650662030095.778,386.57604078164826,0.0
1650662030096.059,386.57604078164826,0.0
1650662030125.702,386.57604078164826,0.0
1650662030126.89,386.79512609804476,0.0
1650662030139.3472,386.35720350976504,0.0
1650662030139.525,386.35720350976504,0.0
1650662030148.164,386.57604078164826,0.0
1650662030149.3262,386.57604078164826,0.0
1650662030158.032,386.57604078164826,0.0
1650662030158.174,386.35720350976504,0.0
1650662030185.638,386.57604078164826,0.0
1650662030186.9421,386.57604078164826,0.0
1650662030198.055,386.35720350976504,0.0
1650662030198.323,386.57604078164826,0.0
1650662030199.477,386.13861386138615,0.0
1650662030212.98,386.57604078164826,0.0
1650662030238.138,386.13861386138615,0.0
1650662030238.3188,386.35720350976504,0.0
1650662030239.311,386.35720350976504,0.0
1650662030262.982,386.13861386138615,0.0
1650662030264.2478,386.13861386138615,0.0
1650662030264.3809,386.35720350976504,0.0
1650662030265.603,386.13861386138615,0.0
1650662030274.293,386.35720350976504,0.0
1650662030274.477,385.9202714164546,0.0
1650662030304.2852,386.13861386138615,0.0
1650662030305.496,386.35720350976504,0.0
1650662030319.275,386.35720350976504,0.0
1650662030320.324,386.13861386138615,0.0
1650662030320.38,386.13861386138615,0.0
1650662030321.726,386.13861386138615,0.0
1650662030335.4731,386.35720350976504,0.0
1650662030361.602,386.13861386138615,0.0
1650662030361.784,386.35720350976504,0.0
1650662030362.977,386.35720350976504,0.0
1650662030381.682,386.35720350976504,0.0
1650662030381.936,386.13861386138615,0.0
1650662030382.972,386.13861386138615,0.0
1650662030384.29,386.35720350976504,0.0
1650662030397.83,386.35720350976504,0.0
1650662030422.802,386.13861386138615,0.0
1650662030422.952,386.57604078164826,0.0
1650662030424.176,386.35720350976504,0.0
1650662030439.114,386.35720350976504,0.0
1650662030439.379,386.35720350976504,0.0
1650662030440.48,386.35720350976504,0.0
1650662030454.136,386.35720350976504,0.0
1650662030455.342,386.35720350976504,0.0
1650662030491.542,386.13861386138615,0.0
1650662030491.7778,386.35720350976504,0.0
1650662030492.9421,386.35720350976504,0.0
1650662030497.937,386.57604078164826,0.0
1650662030498.974,386.35720350976504,0.0
1650662030499.0872,386.35720350976504,0.0
1650662030512.832,386.35720350976504,0.0
1650662030539.021,386.13861386138615,0.0
1650662030539.194,386.35720350976504,0.0
1650662030540.2961,386.35720350976504,0.0
1650662030557.807,386.35720350976504,0.0
1650662030558.9111,386.35720350976504,0.0
1650662030559.031,386.35720350976504,0.0
1650662030565.317,386.57604078164826,0.0
1650662030579.111,386.57604078164826,0.0
1650662030613.956,386.35720350976504,0.0
1650662030615.163,386.57604078164826,0.0
1650662030615.376,386.57604078164826,0.0
1650662030620.272,386.57604078164826,0.0
1650662030621.5042,386.57604078164826,0.0
1650662030622.596,386.13861386138615,0.0
1650662030622.761,386.35720350976504,0.0
1650662030636.469,386.13861386138615,0.0
1650662030663.867,386.35720350976504,0.0
1650662030665.039,386.35720350976504,0.0
1650662030665.184,386.35720350976504,0.0
1650662030681.436,386.35720350976504,0.0
1650662030682.7842,386.13861386138615,0.0
1650662030687.572,386.13861386138615,0.0
1650662030687.744,386.57604078164826,0.0
1650662030716.39,386.13861386138615,0.0
1650662030717.539,386.35720350976504,0.0
1650662030740.009,386.13861386138615,0.0
1650662030740.1682,386.13861386138615,0.7326007326007326
1650662030741.386,386.13861386138615,0.0
1650662030742.6072,386.13861386138615,0.0
1650662030756.267,386.13861386138615,0.0
1650662030756.4148,386.13861386138615,0.0
1650662030757.578,385.9202714164546,0.0
1650662030783.8508,386.13861386138615,0.0
1650662030783.9912,385.7021757558632,0.0
1650662030785.064,385.9202714164546,0.0
1650662030798.884,386.13861386138615,0.0
1650662030799.945,385.9202714164546,0.0
1650662030800.125,385.9202714164546,0.0
1650662030813.801,385.9202714164546,0.0
1650662030842.602,385.9202714164546,0.0
1650662030843.7659,385.9202714164546,0.0
1650662030858.9922,385.9202714164546,0.0
1650662030859.261,385.7021757558632,0.0
1650662030860.0718,385.9202714164546,0.0
1650662030868.757,385.9202714164546,0.0
1650662030897.36,385.9202714164546,0.0
1650662030897.5068,385.7021757558632,0.0
1650662030898.68,385.48432646145153,0.0
1650662030918.672,385.9202714164546,0.0
1650662030919.751,385.48432646145153,0.0
1650662030919.81,385.7021757558632,0.0
1650662030921.118,385.7021757558632,0.0
1650662030934.8691,385.48432646145153,0.0
1650662030935.046,385.48432646145153,0.0
1650662030936.1228,385.48432646145153,0.0
1650662030967.392,385.48432646145153,0.0
1650662030968.53,385.7021757558632,0.0
1650662030978.558,385.2667231160034,0.0
1650662030978.7358,385.48432646145153,0.0
1650662030979.829,385.2667231160034,0.0
1650662030993.653,385.48432646145153,0.0
1650662031028.517,385.2667231160034,0.0
1650662031028.6592,385.2667231160034,0.0
1650662031029.784,385.2667231160034,0.0
1650662031037.222,385.2667231160034,0.0
1650662031038.44,385.049365303244,0.0
1650662031038.499,385.2667231160034,0.0
1650662031039.814,385.2667231160034,0.0
1650662031053.4912,385.2667231160034,0.0
1650662031082.182,385.2667231160034,0.0
1650662031082.374,385.2667231160034,0.0
1650662031083.544,385.2667231160034,0.0
1650662031097.167,385.2667231160034,0.0
1650662031098.3901,385.049365303244,0.0
1650662031098.485,385.2667231160034,0.0
1650662031107.3389,385.2667231160034,0.0
1650662031116.026,385.049365303244,0.0
1650662031140.902,385.049365303244,0.0
1650662031141.0862,385.2667231160034,0.0
1650662031142.225,385.2667231160034,0.0
1650662031159.632,385.2667231160034,0.0
1650662031160.854,385.049365303244,0.0
1650662031161.062,385.2667231160034,0.0
1650662031169.6938,385.2667231160034,0.0
1650662031178.463,385.049365303244,0.0
1650662031204.619,385.049365303244,0.0
1650662031204.8472,385.049365303244,0.0
1650662031218.3982,385.2667231160034,0.0
1650662031219.4941,385.2667231160034,0.0
1650662031224.523,385.049365303244,0.0
1650662031224.669,385.049365303244,0.0
1650662031233.468,385.48432646145153,0.0
1650662031238.3188,385.2667231160034,0.0
1650662031268.448,384.8322526078376,0.0
1650662031268.6,385.2667231160034,0.0
1650662031269.685,385.2667231160034,0.0
1650662031275.767,385.2667231160034,0.0
1650662031276.948,385.049365303244,0.0
1650662031277.071,385.049365303244,0.0
1650662031290.8772,385.049365303244,0.0
1650662031320.814,385.049365303244,0.0
1650662031321.885,385.049365303244,0.0
1650662031321.9421,385.2667231160034,0.0
1650662031340.821,385.049365303244,0.0
1650662031341.9868,385.2667231160034,0.0
1650662031343.2131,385.049365303244,0.0
1650662031343.3489,385.2667231160034,0.0
1650662031358.304,385.049365303244,0.0
1650662031384.553,385.049365303244,0.0
1650662031385.634,385.049365303244,0.0
1650662031385.797,385.049365303244,0.0
1650662031399.54,385.2667231160034,0.0
1650662031400.63,385.049365303244,0.0
1650662031409.351,384.8322526078376,0.0
1650662031409.487,385.049365303244,0.0
1650662031418.231,385.049365303244,0.0
1650662031444.312,385.2667231160034,0.0
1650662031444.4211,385.049365303244,0.0
1650662031445.7031,385.049365303244,0.0
1650662031455.71,385.049365303244,0.0
1650662031456.818,385.049365303244,0.0
1650662031470.556,385.049365303244,0.0
1650662031470.697,385.049365303244,0.0
1650662031498.1638,385.049365303244,0.0
1650662031499.616,385.049365303244,0.0
1650662031516.769,385.049365303244,0.0
1650662031516.9539,385.049365303244,0.0
1650662031518.091,385.049365303244,0.0
1650662031519.364,385.049365303244,0.0
1650662031533.087,385.049365303244,0.0
1650662031533.253,385.049365303244,0.0
1650662031560.6,385.049365303244,0.0
1650662031561.845,385.2667231160034,0.0
1650662031574.336,384.8322526078376,0.0
1650662031574.682,384.8322526078376,0.0
1650662031588.0872,385.049365303244,0.0
1650662031589.192,385.049365303244,0.0
1650662031589.344,385.049365303244,0.0
1650662031594.605,384.8322526078376,0.0
1650662031623.05,385.049365303244,0.0
1650662031624.154,385.049365303244,0.0
1650662031624.289,384.8322526078376,0.0
1650662031639.281,385.049365303244,0.0
1650662031640.5251,385.049365303244,0.0
1650662031645.4229,384.8322526078376,0.0
1650662031675.459,384.8322526078376,0.0
1650662031675.6812,384.8322526078376,0.0
1650662031676.7559,384.8322526078376,0.0
1650662031699.234,384.8322526078376,0.0
1650662031700.344,384.8322526078376,0.0
1650662031700.475,384.8322526078376,0.0
1650662031701.68,384.8322526078376,0.0
1650662031710.477,385.049365303244,0.0
1650662031711.721,384.8322526078376,0.0
1650662031742.9521,384.6153846153846,0.0
1650662031744.134,384.8322526078376,0.0
1650662031757.988,384.8322526078376,0.0
1650662031759.04,384.8322526078376,0.0
1650662031759.207,384.8322526078376,0.0
1650662031760.381,384.8322526078376,0.0
1650662031774.041,384.8322526078376,0.0
1650662031810.261,384.8322526078376,0.0
1650662031810.394,384.8322526078376,0.0
1650662031811.6812,384.8322526078376,0.0
1650662031812.8208,384.8322526078376,0.0
1650662031813.917,384.8322526078376,0.0
1650662031814.007,384.8322526078376,0.0
1650662031822.8381,384.8322526078376,0.0
1650662031836.515,384.8322526078376,0.0
1650662031862.818,384.8322526078376,0.0
1650662031863.021,384.8322526078376,0.0
1650662031876.559,384.8322526078376,0.0
1650662031877.723,384.8322526078376,0.0
1650662031878.9092,384.8322526078376,0.0
1650662031879.06,384.8322526078376,0.0
1650662031887.958,384.8322526078376,0.0
1650662031896.6301,384.39876091241905,0.0
1650662031932.699,384.6153846153846,0.0
1650662031932.869,384.8322526078376,0.0
1650662031933.961,384.6153846153846,0.0
1650662031935.131,384.6153846153846,0.0
1650662031948.885,384.8322526078376,0.0
1650662031949.024,384.6153846153846,0.0
1650662031953.9521,384.6153846153846,0.0
1650662031992.794,384.6153846153846,0.0
1650662031993.041,384.6153846153846,0.0
1650662031993.0872,384.6153846153846,0.0
1650662031994.153,384.6153846153846,0.0
1650662031995.045,384.8322526078376,0.0
1650662031995.178,384.6153846153846,0.0
1650662032004.038,384.6153846153846,0.0
1650662032012.705,384.6153846153846,0.0
1650662032040.3809,384.39876091241905,0.0
1650662032041.2349,384.6153846153846,0.0
1650662032041.368,384.6153846153846,6.593406593406593
1650662032058.908,384.6153846153846,120.14652014652013
1650662032060.03,384.6153846153846,282.05128205128204
1650662032061.2769,384.39876091241905,457.1428571428571
1650662032061.459,384.6153846153846,627.8388278388278
1650662032075.217,384.39876091241905,785.3479853479853
1650662032110.035,384.6153846153846,920.1465201465201
1650662032111.229,384.39876091241905,1032.967032967033
1650662032111.416,384.6153846153846,1119.4139194139193
1650662032112.9402,384.39876091241905,1186.8131868131868
1650662032113.785,384.6153846153846,1235.8974358974358
1650662032127.512,384.39876091241905,1273.9926739926739
1650662032127.703,384.39876091241905,1300.3663003663003
1650662032133.957,384.39876091241905,1317.9487179487178
1650662032162.517,384.39876091241905,1327.4725274725274
1650662032164.074,384.39876091241905,1330.4029304029302
1650662032164.345,384.6153846153846,1329.6703296703297
1650662032181.26,384.39876091241905,1325.2747252747251
1650662032182.3872,384.6153846153846,1320.14652014652
1650662032183.635,384.39876091241905,1317.216117216117
1650662032183.794,384.6153846153846,1311.3553113553112
1650662032197.628,384.39876091241905,1305.4945054945053
1650662032229.8638,384.6153846153846,1299.6336996336995
1650662032230.075,384.39876091241905,1293.040293040293
1650662032230.123,384.6153846153846,1287.9120879120878
1650662032240.0588,384.8322526078376,1284.9816849816848
1650662032241.033,384.6153846153846,1281.3186813186812
1650662032241.12,384.6153846153846,1279.120879120879
1650662032254.937,384.6153846153846,1273.260073260073
1650662032287.436,384.39876091241905,1270.3296703296703
1650662032288.655,384.6153846153846,1268.8644688644688
1650662032298.702,384.6153846153846,1271.062271062271
1650662032298.909,384.6153846153846,1271.7948717948716
1650662032299.0269,384.6153846153846,1275.4578754578754
1650662032329.798,384.6153846153846,1279.8534798534797
1650662032330.937,384.6153846153846,1286.4468864468863
1650662032331.0461,384.8322526078376,1292.3076923076922
1650662032356.157,384.6153846153846,1295.970695970696
1650662032357.29,384.8322526078376,1298.9010989010987
1650662032358.5159,384.6153846153846,1301.098901098901
1650662032358.7698,384.8322526078376,1303.2967032967033
1650662032359.8582,384.8322526078376,1306.227106227106
1650662032366.169,384.8322526078376,1310.6227106227104
1650662032374.763,384.6153846153846,1315.018315018315
1650662032374.9348,384.8322526078376,1320.14652014652
1650662032409.854,384.8322526078376,1326.007326007326
1650662032410.917,384.8322526078376,1330.4029304029302
1650662032417.348,384.6153846153846,1334.7985347985348
1650662032417.593,384.8322526078376,1336.263736263736
1650662032418.51,384.6153846153846,1339.9267399267399
1650662032427.194,384.6153846153846,1340.6593406593406
1650662032427.314,384.8322526078376,1340.6593406593406
1650662032436.111,384.8322526078376,1340.6593406593406
1650662032471.042,384.8322526078376,1341.3919413919414
1650662032472.262,384.8322526078376,1340.6593406593406
1650662032478.374,384.8322526078376,1339.194139194139
1650662032478.542,385.049365303244,1337.7289377289376
1650662032479.664,384.8322526078376,1337.7289377289376
1650662032512.166,384.6153846153846,1338.4615384615383
1650662032512.347,384.6153846153846,1336.263736263736
1650662032513.4421,384.8322526078376,1334.065934065934
1650662032534.7422,385.049365303244,1330.4029304029302
1650662032535.795,384.8322526078376,1327.4725274725274
1650662032537.11,385.049365303244,1324.5421245421244
1650662032537.283,385.049365303244,1321.6117216117216
1650662032538.476,384.8322526078376,1320.14652014652
1650662032552.2659,384.8322526078376,1320.14652014652
1650662032577.096,384.8322526078376,1320.14652014652
1650662032577.311,384.8322526078376,1319.4139194139193
1650662032578.34,385.049365303244,1318.6813186813185
1650662032599.591,384.8322526078376,1317.9487179487178
1650662032600.709,384.8322526078376,1317.216117216117
1650662032600.876,384.6153846153846,1317.9487179487178
1650662032607.375,384.8322526078376,1320.14652014652
1650662032615.704,385.049365303244,1322.3443223443223
1650662032652.031,384.8322526078376,1324.5421245421244
1650662032652.1921,385.049365303244,1325.2747252747251
1650662032653.295,385.049365303244,1324.5421245421244
1650662032654.479,385.049365303244,1322.3443223443223
1650662032658.802,384.8322526078376,1320.14652014652
1650662032659.006,385.049365303244,1316.4835164835165
1650662032669.589,385.049365303244,1313.5531135531135
1650662032696.058,385.049365303244,1309.89010989011
1650662032696.9248,384.8322526078376,1306.227106227106
1650662032697.153,385.049365303244,1303.2967032967033
1650662032714.561,384.8322526078376,1299.6336996336995
1650662032715.593,385.049365303244,1296.7032967032967
1650662032716.873,384.8322526078376,1295.2380952380952
1650662032716.978,384.8322526078376,1293.7728937728937
1650662032730.794,384.8322526078376,1293.7728937728937
1650662032760.803,384.8322526078376,1295.2380952380952
1650662032761.944,385.049365303244,1295.970695970696
1650662032762.188,385.049365303244,1296.7032967032967
1650662032779.433,384.8322526078376,1298.168498168498
1650662032780.564,385.2667231160034,1303.2967032967033
1650662032780.708,384.8322526078376,1310.6227106227104
1650662032781.968,384.8322526078376,1320.8791208791208
1650662032799.071,385.2667231160034,1335.5311355311355
1650662032830.6528,385.049365303244,1352.3809523809523
1650662032830.899,385.2667231160034,1370.6959706959706
1650662032830.947,385.049365303244,1389.0109890109889
1650662032834.375,385.2667231160034,1405.128205128205
1650662032835.4348,385.2667231160034,1418.3150183150183
1650662032844.265,385.049365303244,1430.7692307692307
1650662032844.408,385.2667231160034,1441.7582417582416
1650662032853.169,385.049365303244,1449.8168498168498
1650662032889.301,385.48432646145153,1452.7472527472526
1650662032890.528,385.48432646145153,1452.7472527472526
1650662032890.788,385.049365303244,1449.8168498168498
1650662032896.863,385.48432646145153,1446.153846153846
1650662032897.968,385.2667231160034,1442.4908424908424
1650662032906.785,385.049365303244,1439.5604395604394
1650662032906.933,385.48432646145153,1435.8974358974358
1650662032915.595,385.049365303244,1434.4322344322343
1650662032940.469,385.48432646145153,1432.9670329670328
1650662032941.655,385.48432646145153,1431.5018315018315
1650662032941.7542,385.2667231160034,1428.5714285714284
1650662032955.533,385.48432646145153,1427.106227106227
1650662032956.708,385.049365303244,1426.3736263736262
1650662032970.389,385.48432646145153,1423.4432234432234
1650662032970.5588,385.48432646145153,1419.047619047619
1650662032976.736,385.48432646145153,1413.1868131868132
1650662033009.2102,385.7021757558632,1411.7216117216117
1650662033010.326,385.48432646145153,1416.117216117216
1650662033010.47,385.7021757558632,1421.245421245421
1650662033016.669,385.7021757558632,1426.3736263736262
1650662033017.766,385.48432646145153,1431.5018315018315
1650662033017.8572,385.48432646145153,1437.3626373626373
1650662033032.511,385.7021757558632,1442.4908424908424
1650662033071.624,385.48432646145153,1446.8864468864467
1650662033072.711,385.7021757558632,1449.084249084249
1650662033072.799,385.2667231160034,1452.014652014652
1650662033074.142,385.7021757558632,1452.7472527472526
1650662033075.4038,385.7021757558632,1450.5494505494505
1650662033084.064,385.48432646145153,1449.084249084249
1650662033084.271,385.7021757558632,1448.3516483516482
1650662033096.364,385.48432646145153,1447.6190476190475
1650662033129.061,385.7021757558632,1449.084249084249
1650662033130.165,385.9202714164546,1450.5494505494505
1650662033136.637,385.7021757558632,1450.5494505494505
1650662033136.987,385.9202714164546,1449.084249084249
1650662033137.798,385.48432646145153,1443.956043956044
1650662033146.5918,385.7021757558632,1438.8278388278388
1650662033155.232,385.7021757558632,1433.6996336996335
1650662033155.4092,385.48432646145153,1430.03663003663
1650662033181.548,385.7021757558632,1426.3736263736262
1650662033185.812,385.48432646145153,1424.9084249084249
1650662033200.276,385.48432646145153,1423.4432234432234
1650662033200.5369,385.48432646145153,1422.7106227106226
1650662033201.505,385.2667231160034,1419.7802197802198
1650662033206.5352,385.7021757558632,1414.6520146520145
1650662033235.173,385.2667231160034,1408.7912087912086
1650662033235.363,385.2667231160034,1405.128205128205
1650662033236.499,385.48432646145153,1399.2673992673992
1650662033255.2139,385.2667231160034,1391.2087912087911
1650662033256.388,385.48432646145153,1384.6153846153845
1650662033256.55,385.2667231160034,1380.2197802197802
1650662033257.681,385.2667231160034,1378.7545787545787
1650662033271.583,385.7021757558632,1378.021978021978
1650662033298.906,385.2667231160034,1381.6849816849815
1650662033299.144,385.48432646145153,1387.5457875457876
1650662033300.252,385.2667231160034,1389.0109890109889
1650662033317.521,385.48432646145153,1387.5457875457876
1650662033318.768,385.48432646145153,1385.3479853479853
1650662033318.864,385.2667231160034,1382.4175824175823
1650662033325.166,385.7021757558632,1378.021978021978
1650662033331.376,385.7021757558632,1373.6263736263736
1650662033370.036,385.2667231160034,1369.9633699633698
1650662033370.2258,385.7021757558632,1368.4981684981683
1650662033374.761,385.48432646145153,1366.3003663003662
1650662033375.887,385.48432646145153,1364.8351648351647
1650662033376.376,385.2667231160034,1363.3699633699632
1650662033376.531,385.2667231160034,1360.4395604395604
1650662033385.4922,385.2667231160034,1358.2417582417581
1650662033428.994,385.48432646145153,1356.0439560439559
1650662033429.977,385.2667231160034,1351.6483516483515
1650662033432.191,385.48432646145153,1348.7179487179487
1650662033432.479,385.2667231160034,1345.054945054945
1650662033433.624,385.48432646145153,1343.5897435897434
1650662033433.719,385.2667231160034,1342.1245421245421
1650662033435.031,385.2667231160034,1340.6593406593406
1650662033448.89,385.48432646145153,1340.6593406593406
1650662033473.626,385.2667231160034,1341.3919413919414
1650662033474.8782,385.48432646145153,1343.5897435897434
1650662033475.05,385.2667231160034,1344.3223443223442
1650662033495.0718,385.2667231160034,1345.7875457875457
1650662033496.191,385.48432646145153,1343.5897435897434
1650662033497.3481,385.2667231160034,1340.6593406593406
1650662033497.835,385.48432646145153,1336.263736263736
1650662033512.459,385.2667231160034,1335.5311355311355
1650662033550.017,385.48432646145153,1335.5311355311355
1650662033552.311,385.48432646145153,1335.5311355311355
1650662033552.5679,385.48432646145153,1336.263736263736
1650662033553.693,385.7021757558632,1334.7985347985348
1650662033554.939,385.7021757558632,1334.065934065934
1650662033563.606,385.2667231160034,1333.3333333333333
1650662033563.865,385.7021757558632,1332.6007326007325
1650662033572.392,385.48432646145153,1333.3333333333333
1650662033597.381,385.48432646145153,1334.7985347985348
1650662033597.607,385.48432646145153,1337.7289377289376
1650662033598.6619,385.48432646145153,1341.3919413919414
1650662033616.126,385.7021757558632,1344.3223443223442
1650662033617.396,385.7021757558632,1343.5897435897434
1650662033617.555,385.7021757558632,1341.3919413919414
1650662033626.955,385.7021757558632,1342.1245421245421
1650662033635.063,385.48432646145153,1341.3919413919414
1650662033672.27,385.7021757558632,1340.6593406593406
1650662033672.476,385.7021757558632,1338.4615384615383
1650662033673.542,385.48432646145153,1337.7289377289376
1650662033674.98,385.9202714164546,1336.9963369963368
1650662033676.002,385.7021757558632,1334.7985347985348
1650662033676.1611,385.48432646145153,1332.6007326007325
1650662033689.852,385.7021757558632,1331.8681318681317
1650662033696.038,385.48432646145153,1331.8681318681317
1650662033723.383,385.48432646145153,1334.065934065934
1650662033724.5942,385.7021757558632,1336.263736263736
1650662033724.705,385.7021757558632,1338.4615384615383
1650662033737.291,385.9202714164546,1342.1245421245421
1650662033745.9568,385.48432646145153,1343.5897435897434
1650662033750.928,385.7021757558632,1342.8571428571427
1650662033751.1,385.9202714164546,1346.5201465201465
1650662033775.9731,386.13861386138615,1351.6483516483515
1650662033777.1511,386.13861386138615,1358.2417582417581
1650662033798.623,385.7021757558632,1369.230769230769
1650662033798.87,385.9202714164546,1386.080586080586
1650662033799.745,385.9202714164546,1405.8608058608058
1650662033800.879,385.9202714164546,1426.3736263736262
1650662033801.049,386.35720350976504,1446.153846153846
1650662033815.9832,386.13861386138615,1465.9340659340658
1650662033850.858,385.9202714164546,1479.8534798534797
1650662033851.971,386.13861386138615,1493.040293040293
1650662033855.8618,385.9202714164546,1503.2967032967033
1650662033856.038,386.13861386138615,1513.5531135531135
1650662033857.165,385.9202714164546,1521.6117216117216
1650662033858.4421,386.13861386138615,1525.2747252747251
1650662033872.0032,386.13861386138615,1525.2747252747251
1650662033872.161,386.13861386138615,1523.0769230769229
1650662033914.564,386.35720350976504,1517.216117216117
1650662033916.2012,386.13861386138615,1510.6227106227104
1650662033918.147,385.9202714164546,1504.7619047619046
1650662033918.261,386.35720350976504,1500.3663003663003
1650662033919.535,385.9202714164546,1495.2380952380952
1650662033925.7842,386.13861386138615,1490.10989010989
1650662033934.447,386.13861386138615,1484.9816849816848
1650662033934.68,386.13861386138615,1479.8534798534797
1650662033972.108,386.35720350976504,1476.1904761904761
1650662033973.283,386.13861386138615,1473.9926739926739
1650662033975.719,386.13861386138615,1471.7948717948716
1650662033975.867,386.13861386138615,1471.062271062271
1650662033977.0469,386.13861386138615,1468.8644688644688
1650662033990.735,386.13861386138615,1468.131868131868
1650662033995.741,385.9202714164546,1467.3992673992673
1650662033995.97,386.35720350976504,1466.6666666666665
1650662034020.793,386.35720350976504,1463.7362637362637
1650662034021.913,386.13861386138615,1462.2710622710622
1650662034035.74,386.35720350976504,1458.6080586080584
1650662034035.9558,385.9202714164546,1455.6776556776556
1650662034042.158,386.35720350976504,1452.7472527472526
1650662034050.911,386.35720350976504,1449.8168498168498
1650662034083.103,386.13861386138615,1446.153846153846
1650662034083.3071,386.35720350976504,1445.4212454212454
1650662034084.341,386.13861386138615,1444.6886446886447
1650662034102.914,386.35720350976504,1442.4908424908424
1650662034103.218,386.35720350976504,1443.956043956044
1650662034103.2961,386.35720350976504,1446.8864468864467
1650662034103.383,386.57604078164826,1449.084249084249
1650662034135.591,386.35720350976504,1449.8168498168498
1650662034136.707,386.13861386138615,1450.5494505494505
1650662034136.8042,386.57604078164826,1448.3516483516482
1650662034154.362,386.35720350976504,1443.2234432234432
1650662034155.557,386.35720350976504,1438.095238095238
1650662034157.9238,386.35720350976504,1433.6996336996335
1650662034158.0999,386.35720350976504,1430.03663003663
1650662034166.826,386.57604078164826,1427.8388278388277
1650662034175.574,386.13861386138615,1427.8388278388277
1650662034200.554,386.57604078164826,1427.8388278388277
1650662034200.749,386.57604078164826,1429.3040293040292
1650662034201.8188,386.57604078164826,1427.8388278388277
1650662034221.6848,386.57604078164826,1425.6410256410256
1650662034224.432,386.57604078164826,1419.7802197802198
1650662034224.576,386.57604078164826,1415.3846153846152
1650662034224.624,386.79512609804476,1412.4542124542124
1650662034250.771,386.57604078164826,1410.989010989011
1650662034251.586,386.79512609804476,1409.5238095238094
1650662034251.6921,386.57604078164826,1408.7912087912086
1650662034276.829,386.57604078164826,1405.8608058608058
1650662034277.941,386.35720350976504,1404.3956043956043
1650662034289.0388,386.35720350976504,1401.4652014652013
1650662034289.195,386.57604078164826,1400.7326007326005
1650662034290.411,386.57604078164826,1402.9304029304028
1650662034315.634,386.57604078164826,1405.128205128205
1650662034316.669,386.35720350976504,1406.5934065934066
1650662034316.932,386.35720350976504,1408.7912087912086
1650662034342.905,386.57604078164826,1409.5238095238094
1650662034344.1611,386.35720350976504,1409.5238095238094
1650662034347.733,386.35720350976504,1408.058608058608
1650662034347.864,386.35720350976504,1405.8608058608058
1650662034352.9192,386.35720350976504,1400.0
1650662034397.896,386.13861386138615,1392.6739926739926
1650662034399.943,386.13861386138615,1384.6153846153845
1650662034400.199,385.7021757558632,1378.021978021978
1650662034404.1392,386.13861386138615,1367.7655677655678
1650662034405.366,386.13861386138615,1357.5091575091574
1650662034406.465,386.13861386138615,1346.5201465201465
1650662034406.606,386.35720350976504,1339.9267399267399
1650662034415.344,386.13861386138615,1334.7985347985348
1650662034440.3901,386.35720350976504,1331.8681318681317
1650662034441.4111,386.13861386138615,1326.7399267399267
1650662034441.505,386.35720350976504,1321.6117216117216
1650662034461.563,386.35720350976504,1315.7509157509157
1650662034462.7148,386.13861386138615,1312.087912087912
1650662034465.2842,386.13861386138615,1309.89010989011
1650662034465.416,386.13861386138615,1309.1575091575091
1650662034490.3481,386.13861386138615,1306.9597069597069
1650662034491.4739,386.35720350976504,1305.4945054945053
1650662034516.552,386.13861386138615,1304.7619047619046
1650662034516.705,386.35720350976504,1304.7619047619046
1650662034517.728,386.35720350976504,1305.4945054945053
1650662034518.987,386.13861386138615,1304.7619047619046
1650662034528.891,386.13861386138615,1302.5641025641025
1650662034529.0571,386.13861386138615,1299.6336996336995
1650662034555.223,386.13861386138615,1298.168498168498
1650662034556.343,386.35720350976504,1298.9010989010987
1650662034575.1382,386.13861386138615,1299.6336996336995
1650662034575.322,386.35720350976504,1301.8315018315018
1650662034576.3928,386.13861386138615,1301.098901098901
1650662034577.506,386.13861386138615,1299.6336996336995
1650662034591.336,386.13861386138615,1298.168498168498
1650662034591.5571,386.13861386138615,1298.9010989010987
1650662034616.376,386.35720350976504,1295.970695970696
1650662034617.5051,386.35720350976504,1296.7032967032967
1650662034636.358,386.13861386138615,1297.4358974358975
1650662034636.5818,386.35720350976504,1302.5641025641025
1650662034637.6182,386.35720350976504,1306.227106227106
1650662034642.576,386.35720350976504,1309.1575091575091
1650662034651.433,385.9202714164546,1310.6227106227104
1650662034651.752,386.13861386138615,1312.087912087912
1650662034690.0361,386.35720350976504,1312.087912087912
1650662034692.012,386.35720350976504,1309.89010989011
1650662034692.437,386.13861386138615,1304.7619047619046
1650662034692.647,386.35720350976504,1297.4358974358975
1650662034693.85,386.35720350976504,1289.3772893772893
1650662034707.5952,386.35720350976504,1281.3186813186812
1650662034737.4429,386.35720350976504,1276.1904761904761
1650662034737.661,386.35720350976504,1271.7948717948716
1650662034738.9988,386.35720350976504,1271.062271062271
1650662034757.632,386.35720350976504,1274.7252747252746
1650662034758.6912,386.35720350976504,1282.051282051282
1650662034758.875,386.35720350976504,1291.5750915750914
1650662034759.9858,386.35720350976504,1302.5641025641025
1650662034768.647,386.57604078164826,1315.7509157509157
1650662034768.8179,386.35720350976504,1331.8681318681317
1650662034796.221,386.35720350976504,1350.18315018315
1650662034797.466,386.57604078164826,1368.4981684981683
1650662034817.368,386.35720350976504,1386.080586080586
1650662034817.5781,386.13861386138615,1399.2673992673992
1650662034822.477,386.57604078164826,1409.5238095238094
1650662034831.21,386.13861386138615,1418.3150183150183
1650662034832.286,386.57604078164826,1424.9084249084249
1650662034861.675,386.57604078164826,1429.3040293040292
1650662034861.861,386.57604078164826,1431.5018315018315
1650662034862.356,386.79512609804476,1432.9670329670328
1650662034876.036,386.57604078164826,1430.03663003663
1650662034876.2,386.35720350976504,1427.106227106227
1650662034876.25,386.57604078164826,1424.9084249084249
1650662034884.937,386.57604078164826,1421.245421245421
1650662034893.5808,386.35720350976504,1421.245421245421
1650662034932.178,386.57604078164826,1419.7802197802198
1650662034932.331,386.57604078164826,1420.5128205128203
1650662034933.5671,386.79512609804476,1420.5128205128203
1650662034934.739,386.57604078164826,1421.245421245421
1650662034934.855,386.35720350976504,1420.5128205128203
1650662034936.111,386.57604078164826,1421.245421245421
1650662034950.157,386.57604078164826,1419.047619047619
1650662034950.9202,386.79512609804476,1417.5824175824175
1650662034978.7532,386.57604078164826,1414.6520146520145
1650662034979.006,386.57604078164826,1413.1868131868132
1650662034980.208,386.79512609804476,1410.989010989011
1650662034995.951,386.57604078164826,1409.5238095238094
1650662034997.304,386.79512609804476,1408.058608058608
1650662034997.4612,386.79512609804476,1407.3260073260071
1650662035014.7942,386.79512609804476,1405.8608058608058
1650662035038.34,386.79512609804476,1404.3956043956043
1650662035039.615,386.57604078164826,1402.9304029304028
1650662035039.714,386.79512609804476,1403.6630036630036
1650662035053.592,386.79512609804476,1401.4652014652013
1650662035055.0881,386.57604078164826,1401.4652014652013
1650662035055.326,386.57604078164826,1402.197802197802
1650662035055.961,386.79512609804476,1402.197802197802
1650662035070.7659,386.57604078164826,1401.4652014652013
1650662035100.7969,386.79512609804476,1399.2673992673992
1650662035100.94,386.57604078164826,1394.8717948717947
1650662035102.1309,386.79512609804476,1389.0109890109889
1650662035113.373,386.79512609804476,1383.8827838827838
1650662035114.593,386.79512609804476,1380.952380952381
1650662035114.767,386.57604078164826,1376.5567765567764
1650662035123.436,386.79512609804476,1373.6263736263736
1650662035159.719,386.79512609804476,1369.9633699633698
1650662035160.802,386.79512609804476,1367.7655677655678
1650662035174.563,386.79512609804476,1367.032967032967
1650662035175.01,387.0144598809186,1369.230769230769
1650662035175.987,386.79512609804476,1372.8937728937728
1650662035177.072,387.0144598809186,1378.021978021978
1650662035185.7869,386.79512609804476,1381.6849816849815
1650662035186.028,386.79512609804476,1383.150183150183
1650662035195.373,387.0144598809186,1381.6849816849815
1650662035226.958,386.79512609804476,1380.952380952381
1650662035228.294,386.79512609804476,1379.4871794871794
1650662035228.467,386.79512609804476,1379.4871794871794
1650662035234.496,386.79512609804476,1375.8241758241757
1650662035235.614,387.0144598809186,1374.3589743589744
1650662035235.75,386.79512609804476,1374.3589743589744
1650662035249.501,387.0144598809186,1372.161172161172
1650662035275.73,387.0144598809186,1368.4981684981683
1650662035276.835,386.79512609804476,1366.3003663003662
1650662035293.266,387.0144598809186,1363.3699633699632
1650662035293.597,387.0144598809186,1362.6373626373625
1650662035302.042,386.79512609804476,1364.8351648351647
1650662035310.67,387.0144598809186,1364.8351648351647
1650662035311.947,386.79512609804476,1365.5677655677655
1650662035312.1008,387.0144598809186,1368.4981684981683
1650662035340.7249,386.79512609804476,1368.4981684981683
1650662035341.793,386.79512609804476,1369.9633699633698
1650662035355.584,387.0144598809186,1369.9633699633698
1650662035355.784,386.79512609804476,1370.6959706959706
1650662035356.8562,387.0144598809186,1367.7655677655678
1650662035358.1108,386.79512609804476,1367.7655677655678
1650662035371.751,386.57604078164826,1367.032967032967
1650662035371.885,386.79512609804476,1369.230769230769
1650662035406.913,386.79512609804476,1369.230769230769
1650662035407.971,387.0144598809186,1367.032967032967
1650662035414.31,386.79512609804476,1362.6373626373625
1650662035414.447,387.0144598809186,1358.974358974359
1650662035415.573,387.0144598809186,1350.18315018315
1650662035424.397,386.57604078164826,1341.3919413919414
1650662035457.925,386.79512609804476,1333.3333333333333
1650662035458.077,386.79512609804476,1328.2051282051282
1650662035459.2969,386.79512609804476,1327.4725274725274
1650662035475.465,387.0144598809186,1329.6703296703297
1650662035476.5862,386.79512609804476,1331.135531135531
1650662035476.666,387.0144598809186,1334.065934065934
1650662035478.067,386.79512609804476,1335.5311355311355
1650662035486.989,386.79512609804476,1336.263736263736
1650662035519.202,386.79512609804476,1339.194139194139
1650662035519.413,386.79512609804476,1339.194139194139
1650662035520.4922,386.79512609804476,1337.7289377289376
1650662035535.653,386.79512609804476,1336.9963369963368
1650662035537.814,386.57604078164826,1334.065934065934
1650662035537.965,387.0144598809186,1331.8681318681317
1650662035539.19,386.79512609804476,1329.6703296703297
1650662035553.198,386.79512609804476,1329.6703296703297
1650662035554.1921,386.79512609804476,1332.6007326007325
1650662035554.369,386.79512609804476,1337.7289377289376
1650662035586.683,386.79512609804476,1342.1245421245421
1650662035587.9878,387.0144598809186,1344.3223443223442
1650662035599.17,386.79512609804476,1341.3919413919414
1650662035599.356,386.79512609804476,1336.263736263736
1650662035600.38,386.79512609804476,1328.937728937729
1650662035614.83,386.57604078164826,1323.076923076923
1650662035649.19,386.57604078164826,1321.6117216117216
1650662035649.43,386.79512609804476,1319.4139194139193
1650662035650.358,386.79512609804476,1315.7509157509157
1650662035654.0872,387.0144598809186,1312.8205128205127
1650662035654.28,386.57604078164826,1310.6227106227104
1650662035655.356,386.79512609804476,1308.4249084249084
1650662035680.3948,386.79512609804476,1306.227106227106
1650662035682.09,386.57604078164826,1304.0293040293038
1650662035711.407,386.79512609804476,1301.098901098901
1650662035711.541,386.79512609804476,1300.3663003663003
1650662035712.728,386.79512609804476,1301.098901098901
1650662035720.28,386.79512609804476,1305.4945054945053
1650662035722.624,386.57604078164826,1311.3553113553112
1650662035722.898,386.79512609804476,1317.9487179487178
1650662035724.056,386.79512609804476,1323.076923076923
1650662035756.884,386.79512609804476,1319.4139194139193
1650662035757.653,386.57604078164826,1301.098901098901
1650662035757.8162,386.79512609804476,1275.4578754578754
1650662035773.979,386.79512609804476,1267.3992673992673
1650662035775.2222,386.79512609804476,1316.4835164835165
1650662035775.445,386.57604078164826,1476.1904761904761
1650662035776.5269,386.57604078164826,1835.164835164835
1650662035790.247,386.79512609804476,2365.5677655677655
1650662035823.894,386.79512609804476,2783.8827838827838
1650662035824.038,386.57604078164826,2783.150183150183
1650662035825.37,386.57604078164826,2784.6153846153843
1650662035836.4949,386.79512609804476,2691.5750915750914
1650662035837.985,386.57604078164826,2027.106227106227
1650662035838.868,386.57604078164826,923.8095238095237
1650662035839.036,386.79512609804476,0.0
1650662035852.701,387.0144598809186,0.0
1650662035879.0159,387.0144598809186,414.6520146520146
1650662035880.028,387.0144598809186,1112.087912087912
1650662035880.1829,387.0144598809186,1843.2234432234432
1650662035893.913,386.79512609804476,2471.062271062271
1650662035895.0688,386.79512609804476,2783.8827838827838
1650662035905.088,386.79512609804476,2783.8827838827838
1650662035905.3372,386.79512609804476,2785.3479853479853
1650662035911.625,386.79512609804476,2783.8827838827838
1650662035938.8672,386.79512609804476,2783.8827838827838
1650662035939.971,386.79512609804476,2783.8827838827838
1650662035940.1482,386.79512609804476,2784.6153846153843
1650662035955.1301,386.57604078164826,2783.8827838827838
1650662035956.379,386.79512609804476,2783.8827838827838
1650662035966.228,386.57604078164826,2783.8827838827838
1650662035966.4978,386.79512609804476,2772.161172161172
1650662035991.401,386.79512609804476,2662.271062271062
1650662035992.528,386.79512609804476,2509.8901098901097
1650662036012.501,386.79512609804476,2342.8571428571427
1650662036012.788,386.57604078164826,2180.21978021978
1650662036013.721,386.57604078164826,2032.234432234432
1650662036014.925,387.0144598809186,1901.8315018315018
1650662036033.69,386.79512609804476,1793.4065934065932
1650662036033.844,386.79512609804476,1701.8315018315018
1650662036061.3042,387.0144598809186,1627.8388278388277
1650662036062.563,386.79512609804476,1569.9633699633698
1650662036072.362,386.79512609804476,1526.007326007326
1650662036072.557,386.79512609804476,1496.7032967032967
1650662036073.644,386.79512609804476,1476.1904761904761
1650662036078.716,386.57604078164826,1466.6666666666665
1650662036117.2522,386.79512609804476,1463.7362637362637
1650662036117.399,386.79512609804476,1465.9340659340658
1650662036118.617,386.57604078164826,1470.3296703296703
1650662036136.036,387.0144598809186,1476.1904761904761
1650662036137.281,387.0144598809186,1484.9816849816848
1650662036137.4668,386.79512609804476,1495.2380952380952
1650662036138.569,386.79512609804476,1501.8315018315018
1650662036139.769,387.0144598809186,1506.227106227106
1650662036173.645,387.0144598809186,1502.5641025641025
1650662036173.909,386.79512609804476,1496.7032967032967
1650662036174.856,386.79512609804476,1486.4468864468863
1650662036194.673,387.0144598809186,1477.6556776556777
1650662036195.991,386.79512609804476,1470.3296703296703
1650662036196.28,386.79512609804476,1464.4688644688645
1650662036197.311,386.79512609804476,1458.6080586080584
1650662036206.012,386.79512609804476,1445.4212454212454
1650662036206.2622,387.0144598809186,1415.3846153846152
1650662036249.849,386.79512609804476,1378.7545787545787
1650662036250.994,387.0144598809186,1345.054945054945
1650662036252.0708,387.0144598809186,1316.4835164835165
1650662036253.354,386.79512609804476,1291.5750915750914
1650662036253.4932,387.0144598809186,1264.4688644688645
1650662036254.742,386.79512609804476,1229.3040293040292
1650662036270.968,386.57604078164826,1187.5457875457876
1650662036294.631,387.0144598809186,1136.9963369963368
1650662036294.8142,387.0144598809186,1078.3882783882784
1650662036296.0469,387.0144598809186,994.8717948717948
1650662036314.57,387.0144598809186,895.9706959706959
1650662036315.854,386.79512609804476,795.6043956043956
1650662036316.061,387.23404255319144,702.5641025641025
1650662036317.19,387.0144598809186,616.1172161172161
1650662036330.833,387.0144598809186,540.6593406593406
1650662036362.0552,387.0144598809186,482.05128205128204
1650662036362.246,387.23404255319144,444.6886446886447
1650662036363.389,387.23404255319144,427.8388278388278
1650662036370.87,387.0144598809186,457.87545787545787
1650662036371.9932,387.0144598809186,569.2307692307692
1650662036372.138,387.23404255319144,753.8461538461538
1650662036380.907,387.0144598809186,978.7545787545787
1650662036418.294,387.23404255319144,1198.5347985347985
1650662036418.4548,387.23404255319144,1386.080586080586
1650662036419.594,387.45387453874537,1529.6703296703295
1650662036430.826,387.45387453874537,1625.6410256410256
1650662036431.907,387.23404255319144,1682.051282051282
1650662036433.295,387.23404255319144,1705.4945054945053
1650662036433.437,387.45387453874537,1704.0293040293038
1650662036447.15,387.0144598809186,1682.051282051282
1650662036453.347,387.45387453874537,1645.4212454212452
1650662036481.9019,387.23404255319144,1602.9304029304028
1650662036482.09,387.23404255319144,1561.9047619047617
1650662036483.32,387.0144598809186,1521.6117216117216
1650662036493.407,387.23404255319144,1484.2490842490843
1650662036494.396,387.23404255319144,1451.2820512820513
1650662036494.584,387.23404255319144,1424.1758241758241
1650662036503.236,387.23404255319144,1402.9304029304028
1650662036533.0989,387.23404255319144,1388.278388278388
1650662036534.4119,387.0144598809186,1378.7545787545787
1650662036534.72,387.23404255319144,1372.8937728937728
1650662036554.445,387.0144598809186,1370.6959706959706
1650662036555.542,387.0144598809186,1372.8937728937728
1650662036556.782,387.23404255319144,1377.2893772893772
1650662036556.9019,387.0144598809186,1382.4175824175823
1650662036571.257,387.23404255319144,1388.278388278388
1650662036608.18,387.0144598809186,1391.9413919413919
1650662036610.48,387.23404255319144,1393.4065934065934
1650662036610.634,387.0144598809186,1394.8717948717947
1650662036611.9412,387.0144598809186,1396.3369963369962
1650662036613.075,387.23404255319144,1399.2673992673992
1650662036626.783,387.0144598809186,1403.6630036630036
1650662036626.947,387.0144598809186,1409.5238095238094
1650662036628.0452,387.23404255319144,1414.6520146520145
1650662036656.757,387.0144598809186,1419.7802197802198
1650662036658.0652,387.23404255319144,1422.7106227106226
1650662036658.232,387.0144598809186,1426.3736263736262
1650662036676.543,387.0144598809186,1428.5714285714284
1650662036676.819,387.23404255319144,1430.7692307692307
1650662036681.725,386.79512609804476,1432.2344322344322
1650662036681.824,387.0144598809186,1432.2344322344322
1650662036690.66,387.0144598809186,1430.03663003663
1650662036716.789,386.79512609804476,1427.106227106227
1650662036732.929,387.0144598809186,1424.9084249084249
1650662036733.123,386.57604078164826,1421.245421245421
1650662036734.291,386.79512609804476,1415.3846153846152
1650662036735.49,386.57604078164826,1408.7912087912086
1650662036745.51,386.79512609804476,1400.0
1650662036745.765,386.79512609804476,1396.3369963369962
1650662036779.275,386.79512609804476,1392.6739926739926
1650662036780.353,386.79512609804476,1392.6739926739926
1650662036790.401,387.0144598809186,1395.6043956043954
1650662036790.615,386.57604078164826,1402.197802197802
1650662036791.782,386.79512609804476,1412.4542124542124
1650662036792.8318,386.57604078164826,1426.3736263736262
1650662036806.8198,386.79512609804476,1443.2234432234432
1650662036807.127,386.57604078164826,1463.003663003663
1650662036842.978,386.57604078164826,1481.3186813186812
1650662036844.2048,386.79512609804476,1498.168498168498
1650662036855.236,386.79512609804476,1514.2857142857142
1650662036855.4421,386.57604078164826,1528.937728937729
1650662036856.596,386.79512609804476,1540.6593406593406
1650662036857.851,386.35720350976504,1550.18315018315
1650662036871.5972,386.57604078164826,1553.8461538461538
1650662036871.833,386.57604078164826,1551.6483516483515
1650662036902.9429,386.57604078164826,1545.7875457875457
1650662036904.0989,386.79512609804476,1536.263736263736
1650662036912.637,386.57604078164826,1528.2051282051282
1650662036912.758,386.57604078164826,1520.8791208791208
1650662036914.01,386.35720350976504,1513.5531135531135
1650662036922.857,386.57604078164826,1505.4945054945053
1650662036932.583,386.79512609804476,1499.6336996336995
1650662036932.799,386.57604078164826,1493.040293040293
1650662036956.5688,386.79512609804476,1488.6446886446886
1650662036957.7078,386.79512609804476,1484.9816849816848
1650662036976.378,386.57604078164826,1479.120879120879
1650662036976.6172,386.57604078164826,1474.7252747252746
1650662036977.746,386.57604078164826,1468.8644688644688
1650662036983.898,386.57604078164826,1463.7362637362637
1650662037010.122,386.79512609804476,1457.8754578754579
1650662037010.281,386.35720350976504,1452.7472527472526
1650662037011.488,386.79512609804476,1447.6190476190475
1650662037032.811,386.79512609804476,1442.4908424908424
1650662037035.138,386.57604078164826,1438.8278388278388
1650662037035.328,386.79512609804476,1435.164835164835
1650662037036.4758,386.79512609804476,1433.6996336996335
1650662037051.5251,386.79512609804476,1432.2344322344322
1650662037051.7249,386.57604078164826,1431.5018315018315
1650662037052.7,386.35720350976504,1430.7692307692307
1650662037090.153,386.79512609804476,1431.5018315018315
1650662037091.537,386.79512609804476,1435.164835164835
1650662037092.546,386.79512609804476,1438.095238095238
1650662037092.77,386.57604078164826,1441.7582417582416
1650662037101.43,386.57604078164826,1443.2234432234432
1650662037110.197,386.35720350976504,1446.8864468864467
1650662037138.833,386.57604078164826,1452.014652014652
1650662037139.131,386.79512609804476,1456.4102564102564
1650662037140.1118,386.79512609804476,1461.5384615384614
1650662037152.639,386.57604078164826,1466.6666666666665
1650662037154.9429,386.79512609804476,1468.8644688644688
1650662037155.093,386.57604078164826,1471.062271062271
1650662037161.382,386.79512609804476,1469.5970695970695
1650662037187.479,386.57604078164826,1467.3992673992673
1650662037188.8062,386.57604078164826,1463.7362637362637
1650662037188.95,386.79512609804476,1460.8058608058607
1650662037212.533,386.79512609804476,1459.3406593406592
1650662037213.574,386.79512609804476,1458.6080586080584
1650662037214.833,387.0144598809186,1456.4102564102564
1650662037214.89,386.57604078164826,1454.9450549450548
1650662037223.778,387.0144598809186,1449.8168498168498
1650662037248.6328,386.79512609804476,1445.4212454212454
1650662037250.145,386.79512609804476,1442.4908424908424
1650662037250.308,386.79512609804476,1442.4908424908424
1650662037273.777,386.57604078164826,1441.0256410256409
1650662037274.854,386.35720350976504,1438.8278388278388
1650662037276.053,386.79512609804476,1435.8974358974358
1650662037276.173,386.57604078164826,1434.4322344322343
1650662037284.981,386.79512609804476,1429.3040293040292
1650662037322.446,386.79512609804476,1423.4432234432234
1650662037323.51,386.79512609804476,1418.3150183150183
1650662037323.631,386.57604078164826,1413.1868131868132
1650662037329.925,386.79512609804476,1406.5934065934066
1650662037331.125,386.79512609804476,1400.7326007326005
1650662037341.0698,386.79512609804476,1396.3369963369962
1650662037341.22,386.57604078164826,1394.139194139194
1650662037347.413,386.79512609804476,1391.9413919413919
1650662037374.206,386.57604078164826,1390.4761904761904
1650662037374.415,386.79512609804476,1389.7435897435896
1650662037374.47,386.57604078164826,1391.9413919413919
1650662037396.621,386.57604078164826,1392.6739926739926
1650662037396.867,386.57604078164826,1394.8717948717947
1650662037398.466,386.57604078164826,1396.3369963369962
1650662037398.673,386.57604078164826,1397.069597069597
1650662037412.3672,386.57604078164826,1399.2673992673992
1650662037440.002,386.79512609804476,1400.7326007326005
1650662037441.9019,386.79512609804476,1401.4652014652013
1650662037442.04,386.35720350976504,1400.0
1650662037453.5452,386.57604078164826,1400.0
1650662037454.78,386.79512609804476,1400.7326007326005
1650662037464.701,386.57604078164826,1400.7326007326005
1650662037464.906,386.57604078164826,1401.4652014652013
1650662037498.566,386.35720350976504,1401.4652014652013
1650662037502.866,386.57604078164826,1400.7326007326005
1650662037503.134,387.0144598809186,1400.0
1650662037512.253,386.35720350976504,1398.5347985347985
1650662037513.545,386.79512609804476,1391.9413919413919
1650662037514.547,386.13861386138615,1386.8131868131868
1650662037528.5188,386.79512609804476,1380.2197802197802
1650662037528.699,386.57604078164826,1376.5567765567764
1650662037558.4568,386.57604078164826,1372.8937728937728
1650662037559.726,386.79512609804476,1369.9633699633698
1650662037573.3062,386.79512609804476,1367.032967032967
1650662037573.4438,386.35720350976504,1368.4981684981683
1650662037574.623,386.57604078164826,1370.6959706959706
1650662037583.323,386.57604078164826,1372.8937728937728
1650662037592.0999,386.79512609804476,1377.2893772893772
1650662037592.3481,386.57604078164826,1381.6849816849815
1650662037628.417,386.57604078164826,1386.8131868131868
1650662037629.509,386.35720350976504,1389.7435897435896
1650662037630.759,386.57604078164826,1388.278388278388
1650662037630.9258,386.57604078164826,1386.8131868131868
1650662037632.072,386.57604078164826,1383.150183150183
1650662037645.8682,386.57604078164826,1377.2893772893772
1650662037647.047,386.35720350976504,1372.8937728937728
1650662037685.927,386.57604078164826,1367.7655677655678
1650662037687.0479,386.57604078164826,1362.6373626373625
1650662037690.7092,386.79512609804476,1359.7069597069597
1650662037690.926,386.57604078164826,1358.2417582417581
1650662037691.99,386.57604078164826,1359.7069597069597
1650662037693.2522,386.35720350976504,1361.1721611721612
1650662037706.9832,386.13861386138615,1364.102564102564
1650662037707.19,386.79512609804476,1365.5677655677655
1650662037738.294,386.35720350976504,1364.8351648351647
1650662037739.592,386.57604078164826,1364.8351648351647
1650662037753.175,386.57604078164826,1364.102564102564
1650662037753.398,386.57604078164826,1362.6373626373625
1650662037754.518,386.57604078164826,1361.904761904762
1650662037755.891,386.35720350976504,1361.1721611721612
1650662037769.461,386.35720350976504,1363.3699633699632
1650662037769.6929,386.35720350976504,1364.102564102564
1650662037794.5571,386.35720350976504,1364.102564102564
1650662037816.629,386.57604078164826,1368.4981684981683
1650662037816.71,386.35720350976504,1379.4871794871794
1650662037816.745,386.57604078164826,1393.4065934065934
1650662037816.842,386.35720350976504,1410.989010989011
1650662037818.096,386.57604078164826,1427.8388278388277
1650662037831.892,386.57604078164826,1444.6886446886447
1650662037832.063,386.57604078164826,1463.7362637362637
1650662037860.7212,386.13861386138615,1482.7838827838827
1650662037862.117,386.57604078164826,1501.8315018315018
1650662037870.48,386.35720350976504,1522.3443223443223
1650662037870.6,386.57604078164826,1537.7289377289376
1650662037871.826,386.35720350976504,1550.9157509157508
1650662037885.7131,386.13861386138615,1560.4395604395604
1650662037886.776,386.35720350976504,1565.5677655677655
1650662037914.804,386.35720350976504,1567.7655677655678
1650662037914.956,386.13861386138615,1563.3699633699632
1650662037914.9922,386.57604078164826,1553.8461538461538
1650662037933.0781,386.35720350976504,1540.6593406593406
1650662037934.1062,386.35720350976504,1528.2051282051282
1650662037934.192,386.13861386138615,1517.9487179487178
1650662037943.5881,386.35720350976504,1509.1575091575091
1650662037971.8708,386.35720350976504,1500.3663003663003
1650662037993.073,386.35720350976504,1492.3076923076922
1650662037994.188,386.13861386138615,1484.2490842490843
1650662037995.503,386.13861386138615,1478.3882783882782
1650662037996.611,386.35720350976504,1473.260073260073
1650662037996.784,386.35720350976504,1469.5970695970695
1650662038010.4438,386.13861386138615,1467.3992673992673
1650662038011.696,386.35720350976504,1465.201465201465
1650662038047.803,386.35720350976504,1464.4688644688645
1650662038049.114,386.35720350976504,1463.003663003663
1650662038049.251,386.13861386138615,1463.7362637362637
1650662038050.3809,386.35720350976504,1464.4688644688645
1650662038051.638,386.35720350976504,1464.4688644688645
1650662038060.386,386.13861386138615,1465.201465201465
1650662038060.677,386.13861386138615,1465.9340659340658
1650662038069.17,386.35720350976504,1468.131868131868
1650662038094.157,386.13861386138615,1470.3296703296703
1650662038112.7788,386.57604078164826,1468.8644688644688
1650662038112.942,386.13861386138615,1468.131868131868
1650662038114.1392,386.35720350976504,1466.6666666666665
1650662038115.438,386.35720350976504,1465.201465201465
1650662038120.224,386.13861386138615,1463.7362637362637
1650662038120.3662,386.13861386138615,1465.201465201465
1650662038129.221,386.13861386138615,1464.4688644688645
1650662038163.9321,386.13861386138615,1461.5384615384614
1650662038164.0552,386.35720350976504,1458.6080586080584
1650662038165.312,386.13861386138615,1457.142857142857
1650662038170.384,386.13861386138615,1456.4102564102564
1650662038171.446,386.35720350976504,1452.7472527472526
1650662038171.631,386.13861386138615,1449.084249084249
1650662038180.345,386.13861386138615,1445.4212454212454
1650662038210.208,386.35720350976504,1440.2930402930401
1650662038211.321,386.35720350976504,1437.3626373626373
1650662038230.2761,386.57604078164826,1435.164835164835
1650662038230.581,385.9202714164546,1433.6996336996335
1650662038231.588,386.13861386138615,1431.5018315018315
1650662038232.829,386.13861386138615,1430.03663003663
1650662038246.468,386.13861386138615,1426.3736263736262
1650662038246.735,386.13861386138615,1421.9780219780218
1650662038272.703,386.13861386138615,1419.047619047619
1650662038273.938,386.35720350976504,1416.8498168498168
1650662038293.7751,386.13861386138615,1413.9194139194137
1650662038293.963,386.13861386138615,1408.7912087912086
1650662038295.165,386.13861386138615,1402.9304029304028
1650662038296.377,386.13861386138615,1397.069597069597
1650662038305.022,386.13861386138615,1391.9413919413919
1650662038305.1528,385.9202714164546,1389.0109890109889
1650662038331.482,386.13861386138615,1385.3479853479853
1650662038332.658,386.35720350976504,1385.3479853479853
1650662038352.427,386.13861386138615,1388.278388278388
1650662038352.572,385.9202714164546,1390.4761904761904
1650662038353.869,386.35720350976504,1390.4761904761904
1650662038355.207,386.13861386138615,1386.8131868131868
1650662038368.716,386.35720350976504,1383.150183150183
1650662038368.884,385.9202714164546,1382.4175824175823
1650662038406.348,386.13861386138615,1382.4175824175823
1650662038407.4558,386.13861386138615,1384.6153846153845
1650662038408.644,386.35720350976504,1388.278388278388
1650662038408.766,385.9202714164546,1394.139194139194
1650662038409.997,385.9202714164546,1398.5347985347985
1650662038423.722,385.9202714164546,1401.4652014652013
1650662038423.929,385.9202714164546,1402.197802197802
1650662038430.969,385.7021757558632,1400.0
1650662038459.988,386.13861386138615,1397.069597069597
1650662038461.092,386.13861386138615,1394.139194139194
1650662038473.788,386.13861386138615,1391.2087912087911
1650662038474.0579,385.9202714164546,1387.5457875457876
1650662038475.3872,385.9202714164546,1380.952380952381
1650662038483.749,385.9202714164546,1375.091575091575
1650662038517.321,385.9202714164546,1369.9633699633698
1650662038517.448,385.9202714164546,1364.8351648351647
1650662038518.6118,385.9202714164546,1361.904761904762
1650662038530.0068,386.13861386138615,1361.1721611721612
1650662038532.338,386.13861386138615,1362.6373626373625
1650662038532.512,385.9202714164546,1364.102564102564
1650662038534.376,385.9202714164546,1365.5677655677655
1650662038547.4,386.13861386138615,1367.7655677655678
1650662038572.396,385.9202714164546,1367.7655677655678
1650662038572.619,385.7021757558632,1369.230769230769
1650662038573.596,386.13861386138615,1369.230769230769
1650662038589.833,385.9202714164546,1368.4981684981683
1650662038592.375,385.9202714164546,1367.032967032967
1650662038592.528,385.9202714164546,1364.8351648351647
1650662038593.646,385.9202714164546,1361.904761904762
1650662038607.431,385.9202714164546,1358.974358974359
1650662038632.227,385.9202714164546,1356.0439560439559
1650662038632.421,385.9202714164546,1353.8461538461538
1650662038633.5671,385.9202714164546,1351.6483516483515
1650662038652.188,385.9202714164546,1349.4505494505493
1650662038653.563,385.9202714164546,1349.4505494505493
1650662038653.892,385.7021757558632,1349.4505494505493
1650662038667.326,385.9202714164546,1349.4505494505493
1650662038668.667,385.7021757558632,1349.4505494505493
1650662038698.496,385.9202714164546,1350.9157509157508
1650662038698.7852,385.9202714164546,1353.113553113553
1650662038699.805,385.9202714164546,1355.3113553113553
1650662038715.965,385.9202714164546,1356.7765567765566
1650662038718.2668,385.9202714164546,1358.2417582417581
1650662038718.3481,385.7021757558632,1358.2417582417581
1650662038719.6929,385.9202714164546,1358.2417582417581
1650662038749.6829,385.7021757558632,1358.2417582417581
1650662038750.9749,385.9202714164546,1356.7765567765566
1650662038751.125,385.9202714164546,1356.7765567765566
1650662038773.4202,385.7021757558632,1357.5091575091574
1650662038774.532,385.9202714164546,1357.5091575091574
1650662038774.6748,386.13861386138615,1355.3113553113553
1650662038775.891,385.7021757558632,1355.3113553113553
1650662038787.4128,386.13861386138615,1355.3113553113553
1650662038811.9868,385.7021757558632,1354.5787545787546
1650662038813.17,385.9202714164546,1353.8461538461538
1650662038813.211,385.7021757558632,1353.113553113553
1650662038833.595,385.9202714164546,1356.7765567765566
1650662038834.569,385.9202714164546,1362.6373626373625
1650662038837.027,385.9202714164546,1373.6263736263736
1650662038837.292,385.7021757558632,1388.278388278388
1650662038850.889,385.9202714164546,1403.6630036630036
1650662038875.8098,385.7021757558632,1420.5128205128203
1650662038877.0808,385.9202714164546,1437.3626373626373
1650662038877.281,385.7021757558632,1456.4102564102564
1650662038889.506,385.9202714164546,1476.1904761904761
1650662038890.656,385.9202714164546,1494.5054945054944
1650662038905.405,385.9202714164546,1510.6227106227104
1650662038905.6958,385.7021757558632,1526.007326007326
1650662038929.495,385.9202714164546,1539.194139194139
1650662038930.704,385.9202714164546,1548.7179487179485
1650662038950.864,386.13861386138615,1551.6483516483515
1650662038951.096,385.7021757558632,1551.6483516483515
1650662038952.037,385.9202714164546,1545.054945054945
1650662038953.113,385.7021757558632,1536.263736263736
1650662038961.8772,385.9202714164546,1523.0769230769229
1650662038962.058,385.9202714164546,1511.3553113553112
1650662038988.3062,385.7021757558632,1498.9010989010987
1650662038989.33,385.9202714164546,1486.4468864468863
1650662038989.499,385.9202714164546,1476.1904761904761
1650662039015.726,385.7021757558632,1470.3296703296703
1650662039016.881,385.7021757558632,1463.003663003663
1650662039018.08,385.9202714164546,1458.6080586080584
1650662039024.253,385.9202714164546,1454.9450549450548
1650662039024.374,385.7021757558632,1454.212454212454
1650662039056.88,385.7021757558632,1451.2820512820513
1650662039057.965,385.9202714164546,1448.3516483516482
1650662039058.051,385.9202714164546,1446.153846153846
1650662039071.878,385.7021757558632,1443.956043956044
1650662039073.13,385.7021757558632,1441.7582417582416
1650662039074.2239,385.7021757558632,1438.8278388278388
1650662039089.3171,385.9202714164546,1435.8974358974358
1650662039089.5022,385.7021757558632,1436.6300366300366
1650662039121.806,385.9202714164546,1436.6300366300366
1650662039123.043,385.9202714164546,1438.095238095238
1650662039123.235,385.9202714164546,1438.095238095238
1650662039131.878,385.7021757558632,1438.8278388278388
1650662039133.054,385.7021757558632,1439.5604395604394
1650662039134.898,385.48432646145153,1443.2234432234432
1650662039148.292,385.9202714164546,1445.4212454212454
1650662039148.512,385.7021757558632,1449.084249084249
1650662039173.115,385.7021757558632,1451.2820512820513
1650662039174.3381,385.9202714164546,1451.2820512820513
1650662039194.154,385.7021757558632,1449.8168498168498
1650662039194.308,385.7021757558632,1446.8864468864467
1650662039195.494,385.7021757558632,1445.4212454212454
1650662039201.619,385.7021757558632,1443.956043956044
1650662039237.821,385.9202714164546,1442.4908424908424
1650662039237.957,385.7021757558632,1442.4908424908424
1650662039239.203,385.9202714164546,1441.0256410256409
1650662039250.422,385.7021757558632,1440.2930402930401
1650662039250.6968,385.9202714164546,1437.3626373626373
1650662039251.6821,385.7021757558632,1433.6996336996335
1650662039252.892,385.48432646145153,1429.3040293040292
1650662039266.611,385.9202714164546,1424.9084249084249
1650662039266.855,385.7021757558632,1421.9780219780218
1650662039309.143,385.7021757558632,1419.7802197802198
1650662039310.532,385.9202714164546,1415.3846153846152
1650662039311.559,385.9202714164546,1410.989010989011
1650662039311.778,386.13861386138615,1405.8608058608058
1650662039312.844,385.7021757558632,1400.7326007326005
1650662039314.07,385.7021757558632,1397.069597069597
1650662039327.7532,385.7021757558632,1395.6043956043954
1650662039357.677,385.48432646145153,1396.3369963369962
1650662039357.778,385.7021757558632,1397.069597069597
1650662039359.024,385.7021757558632,1399.2673992673992
1650662039370.173,385.9202714164546,1398.5347985347985
1650662039371.429,385.9202714164546,1396.3369963369962
1650662039371.5662,385.7021757558632,1394.139194139194
1650662039377.783,385.7021757558632,1394.139194139194
1650662039405.163,385.48432646145153,1393.4065934065934
1650662039405.2788,385.7021757558632,1390.4761904761904
1650662039406.455,385.7021757558632,1389.7435897435896
1650662039431.499,385.7021757558632,1388.278388278388
1650662039432.6838,385.9202714164546,1385.3479853479853
1650662039432.873,386.13861386138615,1384.6153846153845
1650662039435.321,385.7021757558632,1383.8827838827838
1650662039444.0051,385.7021757558632,1381.6849816849815
1650662039450.1199,385.9202714164546,1379.4871794871794
1650662039480.1372,385.9202714164546,1377.2893772893772
1650662039480.302,385.9202714164546,1375.8241758241757
1650662039481.588,385.7021757558632,1374.3589743589744
1650662039492.6592,385.9202714164546,1375.091575091575
1650662039493.766,385.7021757558632,1375.091575091575
1650662039493.863,385.48432646145153,1377.2893772893772
1650662039502.787,385.7021757558632,1377.2893772893772
1650662039530.029,385.9202714164546,1378.7545787545787
1650662039530.178,385.9202714164546,1380.952380952381
1650662039531.393,385.9202714164546,1383.150183150183
1650662039553.876,385.7021757558632,1384.6153846153845
1650662039555.048,385.9202714164546,1382.4175824175823
1650662039555.189,385.9202714164546,1379.4871794871794
1650662039556.4238,385.7021757558632,1375.8241758241757
1650662039565.184,385.9202714164546,1372.8937728937728
1650662039604.913,385.9202714164546,1369.230769230769
1650662039605.03,385.9202714164546,1365.5677655677655
1650662039606.345,385.7021757558632,1364.8351648351647
1650662039610.044,385.7021757558632,1366.3003663003662
1650662039611.1519,385.9202714164546,1367.7655677655678
1650662039611.307,385.9202714164546,1367.032967032967
1650662039620.073,385.7021757558632,1369.9633699633698
1650662039628.973,385.9202714164546,1370.6959706959706
1650662039666.19,385.9202714164546,1368.4981684981683
1650662039666.368,385.7021757558632,1364.8351648351647
1650662039667.4958,385.7021757558632,1360.4395604395604
1650662039668.725,385.7021757558632,1358.2417582417581
1650662039669.841,385.9202714164546,1357.5091575091574
1650662039669.927,385.9202714164546,1357.5091575091574
1650662039683.787,385.9202714164546,1358.2417582417581
1650662039724.1199,385.9202714164546,1356.0439560439559
1650662039724.7568,385.7021757558632,1355.3113553113553
1650662039726.012,386.13861386138615,1352.3809523809523
1650662039726.0981,385.7021757558632,1350.9157509157508
1650662039727.448,385.9202714164546,1349.4505494505493
1650662039728.6128,385.7021757558632,1347.985347985348
1650662039764.7668,385.9202714164546,1347.2527472527472
1650662039764.9119,385.7021757558632,1344.3223443223442
1650662039766.154,385.9202714164546,1343.5897435897434
1650662039789.875,385.9202714164546,1345.054945054945
1650662039792.335,385.9202714164546,1348.7179487179487
1650662039792.522,385.7021757558632,1354.5787545787546
1650662039793.686,386.13861386138615,1361.904761904762
1650662039795.075,385.9202714164546,1371.4285714285713
1650662039803.582,385.9202714164546,1380.952380952381
1650662039803.741,385.7021757558632,1393.4065934065934
1650662039838.563,385.9202714164546,1407.3260073260071
1650662039839.8472,386.13861386138615,1422.7106227106226
1650662039849.663,385.9202714164546,1440.2930402930401
1650662039849.8582,385.9202714164546,1460.07326007326
1650662039851.0771,385.7021757558632,1479.8534798534797
1650662039856.134,385.7021757558632,1498.9010989010987
1650662039869.7158,385.9202714164546,1515.018315018315
1650662039869.866,385.7021757558632,1528.937728937729
1650662039894.816,385.9202714164546,1536.9963369963368
1650662039895.876,386.13861386138615,1541.3919413919414
1650662039911.218,386.13861386138615,1543.5897435897434
1650662039911.471,385.9202714164546,1545.054945054945
1650662039912.179,385.9202714164546,1543.5897435897434
1650662039918.449,386.13861386138615,1539.194139194139
1650662039943.422,386.13861386138615,1531.8681318681317
1650662039943.6482,385.7021757558632,1524.5421245421244
1650662039946.837,386.13861386138615,1515.018315018315
1650662039970.999,385.9202714164546,1502.5641025641025
1650662039973.284,385.9202714164546,1490.10989010989
1650662039973.481,385.9202714164546,1481.3186813186812
1650662039974.759,385.7021757558632,1473.9926739926739
1650662039983.5378,386.13861386138615,1468.131868131868
1650662039989.574,386.13861386138615,1465.9340659340658
1650662039989.6829,385.9202714164546,1461.5384615384614
1650662040026.725,386.13861386138615,1457.142857142857
1650662040026.8608,385.9202714164546,1450.5494505494505
1650662040031.938,386.13861386138615,1444.6886446886447
1650662040032.102,385.9202714164546,1440.2930402930401
1650662040033.295,385.7021757558632,1437.3626373626373
1650662040047.141,386.13861386138615,1435.8974358974358
1650662040047.482,386.13861386138615,1439.5604395604394
1650662040073.435,385.9202714164546,1445.4212454212454
1650662040074.576,385.9202714164546,1449.084249084249
1650662040093.383,386.13861386138615,1452.014652014652
1650662040094.5808,386.35720350976504,1454.9450549450548
1650662040094.8801,385.9202714164546,1455.6776556776556
1650662040095.885,385.9202714164546,1456.4102564102564
1650662040109.417,386.13861386138615,1457.142857142857
1650662040109.519,386.13861386138615,1457.8754578754579
1650662040144.644,385.9202714164546,1457.8754578754579
1650662040145.751,385.9202714164546,1453.4798534798533
1650662040146.913,386.35720350976504,1448.3516483516482
1650662040148.238,386.35720350976504,1446.8864468864467
1650662040148.367,385.9202714164546,1449.084249084249
1650662040162.0942,386.13861386138615,1451.2820512820513
1650662040168.137,386.13861386138615,1452.014652014652
1650662040168.268,386.35720350976504,1452.014652014652
1650662040196.944,386.13861386138615,1452.7472527472526
1650662040198.15,386.13861386138615,1452.7472527472526
1650662040208.149,386.13861386138615,1450.5494505494505
1650662040212.6228,386.35720350976504,1446.153846153846
1650662040212.751,385.7021757558632,1442.4908424908424
1650662040223.208,386.13861386138615,1435.8974358974358
1650662040229.5972,386.13861386138615,1430.03663003663
1650662040263.03,386.35720350976504,1424.1758241758241
1650662040263.191,386.13861386138615,1417.5824175824175
1650662040264.3372,386.13861386138615,1411.7216117216117
1650662040270.654,386.35720350976504,1405.8608058608058
1650662040273.036,386.13861386138615,1402.197802197802
1650662040273.224,385.9202714164546,1402.9304029304028
1650662040288.127,386.13861386138615,1402.9304029304028
1650662040289.195,386.13861386138615,1403.6630036630036
1650662040289.296,386.35720350976504,1402.9304029304028
1650662040325.6619,386.13861386138615,1401.4652014652013
1650662040326.771,385.9202714164546,1401.4652014652013
1650662040327.878,386.13861386138615,1400.0
1650662040336.8262,386.35720350976504,1395.6043956043954
1650662040337.019,386.13861386138615,1391.9413919413919
1650662040345.629,386.13861386138615,1387.5457875457876
1650662040370.4888,386.13861386138615,1384.6153846153845
1650662040370.817,386.35720350976504,1382.4175824175823
1650662040371.775,385.9202714164546,1382.4175824175823
1650662040389.3672,386.13861386138615,1383.8827838827838
1650662040390.317,386.13861386138615,1383.8827838827838
1650662040399.219,386.35720350976504,1382.4175824175823
1650662040399.533,386.35720350976504,1380.2197802197802
1650662040408.0159,386.35720350976504,1378.021978021978
1650662040445.313,386.35720350976504,1378.021978021978
1650662040445.417,386.35720350976504,1379.4871794871794
1650662040446.625,386.13861386138615,1380.2197802197802
1650662040447.8818,386.35720350976504,1377.2893772893772
1650662040449.028,386.35720350976504,1373.6263736263736
1650662040457.877,386.35720350976504,1370.6959706959706
1650662040458.1858,386.13861386138615,1371.4285714285713
1650662040483.0981,386.13861386138615,1372.8937728937728
1650662040484.15,386.57604078164826,1374.3589743589744
1650662040510.394,386.35720350976504,1375.091575091575
1650662040510.685,386.13861386138615,1372.8937728937728
1650662040511.6018,386.35720350976504,1369.9633699633698
1650662040512.824,386.35720350976504,1369.230769230769
1650662040522.764,386.57604078164826,1367.7655677655678
1650662040522.9658,386.13861386138615,1368.4981684981683
1650662040556.591,386.35720350976504,1368.4981684981683
1650662040557.665,386.57604078164826,1368.4981684981683
1650662040557.781,386.57604078164826,1365.5677655677655
1650662040570.359,386.13861386138615,1362.6373626373625
1650662040571.5562,386.13861386138615,1361.904761904762
1650662040572.658,386.13861386138615,1363.3699633699632
1650662040600.364,386.57604078164826,1364.8351648351647
1650662040600.573,386.13861386138615,1370.6959706959706
1650662040601.4868,386.35720350976504,1374.3589743589744
1650662040627.668,386.57604078164826,1376.5567765567764
1650662040627.816,386.35720350976504,1378.7545787545787
1650662040628.9622,386.57604078164826,1379.4871794871794
1650662040630.208,386.35720350976504,1378.7545787545787
1650662040638.957,386.35720350976504,1376.5567765567764
1650662040639.2368,386.35720350976504,1374.3589743589744
1650662040647.718,386.13861386138615,1371.4285714285713
1650662040676.502,386.57604078164826,1366.3003663003662
1650662040677.539,386.57604078164826,1363.3699633699632
1650662040677.694,386.57604078164826,1360.4395604395604
1650662040692.789,386.35720350976504,1359.7069597069597
1650662040693.908,386.13861386138615,1358.2417582417581
1650662040695.128,386.35720350976504,1355.3113553113553
1650662040708.827,386.35720350976504,1353.113553113553
1650662040709.0261,386.35720350976504,1353.113553113553
1650662040733.981,386.57604078164826,1353.8461538461538
1650662040735.1501,386.35720350976504,1355.3113553113553
1650662040751.259,386.57604078164826,1356.7765567765566
1650662040751.446,386.57604078164826,1359.7069597069597
1650662040752.6382,386.13861386138615,1364.102564102564
1650662040766.4558,386.57604078164826,1369.9633699633698
1650662040767.646,386.13861386138615,1380.2197802197802
1650662040769.144,386.35720350976504,1389.7435897435896
1650662040805.123,386.57604078164826,1400.0
1650662040806.128,386.57604078164826,1409.5238095238094
1650662040806.198,386.79512609804476,1422.7106227106226
1650662040808.787,386.13861386138615,1437.3626373626373
1650662040815.0571,386.35720350976504,1452.7472527472526
1650662040828.6582,386.57604078164826,1466.6666666666665
1650662040828.779,386.13861386138615,1483.5164835164835
1650662040853.834,386.35720350976504,1498.9010989010987
1650662040855.013,386.35720350976504,1515.018315018315
1650662040873.599,386.57604078164826,1528.937728937729
1650662040873.74,386.79512609804476,1542.1245421245421
1650662040874.971,386.13861386138615,1550.9157509157508
1650662040876.212,386.57604078164826,1554.5787545787546
1650662040887.423,386.57604078164826,1553.113553113553
1650662040887.685,386.57604078164826,1550.9157509157508
1650662040912.469,386.57604078164826,1547.985347985348
1650662040913.6292,386.35720350976504,1540.6593406593406
1650662040936.095,386.57604078164826,1531.135531135531
1650662040936.441,386.79512609804476,1520.8791208791208
1650662040937.4321,386.35720350976504,1511.3553113553112
1650662040938.62,386.57604078164826,1503.2967032967033
1650662040964.854,386.57604078164826,1496.7032967032967
1650662040965.079,386.57604078164826,1490.10989010989
1650662040966.179,386.57604078164826,1483.5164835164835
1650662040992.547,386.57604078164826,1476.1904761904761
1650662040993.492,386.79512609804476,1471.062271062271
1650662040993.6262,386.79512609804476,1466.6666666666665
1650662040997.324,386.57604078164826,1463.7362637362637
1650662040998.576,386.57604078164826,1463.7362637362637
1650662041027.3098,386.57604078164826,1463.003663003663
1650662041028.604,387.0144598809186,1463.003663003663
1650662041028.736,386.79512609804476,1463.7362637362637
1650662041054.908,386.79512609804476,1461.5384615384614
1650662041056.0469,386.79512609804476,1458.6080586080584
1650662041057.467,386.79512609804476,1453.4798534798533
1650662041057.576,386.79512609804476,1450.5494505494505
1650662041063.595,386.79512609804476,1446.8864468864467
1650662041093.481,386.35720350976504,1443.2234432234432
1650662041093.721,386.79512609804476,1441.0256410256409
1650662041094.765,386.57604078164826,1441.0256410256409
1650662041116.0122,386.79512609804476,1441.7582417582416
1650662041117.045,386.79512609804476,1444.6886446886447
1650662041117.115,386.79512609804476,1448.3516483516482
1650662041118.3938,386.79512609804476,1451.2820512820513
1650662041127.404,386.79512609804476,1452.7472527472526
1650662041153.3352,386.79512609804476,1454.212454212454
1650662041153.477,386.57604078164826,1452.7472527472526
1650662041158.426,386.79512609804476,1451.2820512820513
1650662041175.8809,386.79512609804476,1450.5494505494505
1650662041177.017,386.79512609804476,1449.084249084249
1650662041177.1392,387.0144598809186,1447.6190476190475
1650662041178.479,386.79512609804476,1447.6190476190475
1650662041204.659,386.79512609804476,1444.6886446886447
1650662041205.7532,387.0144598809186,1442.4908424908424
1650662041230.752,387.0144598809186,1439.5604395604394
1650662041230.8892,386.79512609804476,1436.6300366300366
1650662041232.09,387.0144598809186,1435.164835164835
1650662041238.341,387.0144598809186,1431.5018315018315
1650662041239.4878,387.0144598809186,1426.3736263736262
1650662041239.622,386.79512609804476,1419.7802197802198
1650662041248.4219,386.79512609804476,1413.1868131868132
1650662041279.632,387.0144598809186,1405.128205128205
1650662041294.7979,387.0144598809186,1400.0
1650662041295.008,386.57604078164826,1397.8021978021977
1650662041295.047,386.79512609804476,1393.4065934065934
1650662041295.804,386.79512609804476,1392.6739926739926
1650662041304.447,387.0144598809186,1390.4761904761904
1650662041304.645,386.79512609804476,1389.7435897435896
1650662041330.7979,387.0144598809186,1391.2087912087911
1650662041332.0068,387.23404255319144,1390.4761904761904
1650662041358.1172,387.0144598809186,1389.0109890109889
1650662041358.268,386.79512609804476,1388.278388278388
1650662041359.4338,387.0144598809186,1387.5457875457876
1650662041360.6829,386.79512609804476,1386.080586080586
1650662041361.788,387.0144598809186,1385.3479853479853
1650662041361.881,386.79512609804476,1384.6153846153845
1650662041386.951,386.79512609804476,1383.150183150183
1650662041388.159,387.0144598809186,1380.952380952381
1650662041415.499,387.0144598809186,1378.021978021978
1650662041415.621,387.0144598809186,1375.8241758241757
1650662041419.395,386.79512609804476,1375.8241758241757
1650662041420.4941,387.0144598809186,1375.8241758241757
1650662041420.596,387.0144598809186,1376.5567765567764
1650662041466.9531,386.57604078164826,1378.021978021978
1650662041468.491,387.23404255319144,1379.4871794871794
1650662041472.952,387.0144598809186,1380.2197802197802
1650662041474.197,387.0144598809186,1380.2197802197802
1650662041474.323,387.0144598809186,1379.4871794871794
1650662041475.545,386.79512609804476,1379.4871794871794
1650662041477.091,387.0144598809186,1377.2893772893772
1650662041507.133,387.0144598809186,1375.8241758241757
1650662041507.302,386.79512609804476,1375.8241758241757
1650662041508.079,387.23404255319144,1375.091575091575
1650662041533.0251,387.23404255319144,1374.3589743589744
1650662041534.199,387.23404255319144,1372.161172161172
1650662041534.403,386.79512609804476,1370.6959706959706
1650662041539.321,386.79512609804476,1367.7655677655678
1650662041540.605,387.23404255319144,1367.032967032967
1650662041576.709,386.79512609804476,1366.3003663003662
1650662041576.9602,387.0144598809186,1364.102564102564
1650662041577.992,387.0144598809186,1362.6373626373625
1650662041593.112,387.0144598809186,1361.904761904762
1650662041595.323,387.23404255319144,1364.8351648351647
1650662041595.519,386.79512609804476,1368.4981684981683
1650662041596.7341,387.0144598809186,1367.7655677655678
1650662041605.522,387.23404255319144,1367.032967032967
1650662041635.35,387.0144598809186,1367.032967032967
1650662041635.57,387.23404255319144,1366.3003663003662
1650662041636.672,387.23404255319144,1365.5677655677655
1650662041655.5159,387.23404255319144,1364.102564102564
1650662041657.769,387.45387453874537,1362.6373626373625
1650662041657.943,386.79512609804476,1362.6373626373625
1650662041659.174,387.23404255319144,1363.3699633699632
1650662041668.104,387.0144598809186,1363.3699633699632
1650662041668.349,387.0144598809186,1362.6373626373625
1650662041692.8909,387.23404255319144,1362.6373626373625
1650662041694.2,387.0144598809186,1361.1721611721612
1650662041716.437,387.23404255319144,1358.2417582417581
1650662041718.55,387.45387453874537,1353.8461538461538
1650662041718.7122,387.0144598809186,1350.9157509157508
1650662041719.018,387.23404255319144,1348.7179487179487
1650662041743.9922,387.23404255319144,1347.985347985348
1650662041744.184,387.45387453874537,1350.18315018315
1650662041745.3179,387.23404255319144,1351.6483516483515
1650662041770.4119,387.23404255319144,1353.113553113553
1650662041771.394,387.23404255319144,1357.5091575091574
1650662041777.7642,387.45387453874537,1360.4395604395604
1650662041777.952,387.23404255319144,1367.032967032967
1650662041779.001,387.23404255319144,1372.161172161172
1650662041806.4028,387.23404255319144,1378.021978021978
1650662041806.559,387.45387453874537,1385.3479853479853
1650662041807.728,387.23404255319144,1397.8021978021977
1650662041831.49,387.45387453874537,1413.1868131868132
1650662041832.591,387.0144598809186,1431.5018315018315
1650662041834.085,387.45387453874537,1449.8168498168498
1650662041834.333,387.23404255319144,1471.7948717948716
1650662041847.765,387.23404255319144,1492.3076923076922
1650662041873.894,387.45387453874537,1512.087912087912
1650662041874.045,387.45387453874537,1528.937728937729
1650662041875.17,387.23404255319144,1539.194139194139
1650662041896.42,387.45387453874537,1546.5201465201465
1650662041897.51,387.23404255319144,1550.9157509157508
1650662041897.63,387.45387453874537,1553.113553113553
1650662041898.863,387.45387453874537,1550.18315018315
1650662041935.2542,387.23404255319144,1543.5897435897434
1650662041936.239,387.45387453874537,1535.5311355311355
1650662041936.399,387.45387453874537,1525.2747252747251
1650662041950.0972,387.45387453874537,1516.4835164835163
1650662041951.383,387.45387453874537,1505.4945054945053
1650662041952.457,387.23404255319144,1494.5054945054944
1650662041958.858,387.6739562624254,1482.7838827838827
1650662041959.1538,387.45387453874537,1475.4578754578754
1650662041985.102,387.45387453874537,1468.8644688644688
1650662041986.1902,387.6739562624254,1463.7362637362637
1650662041986.322,387.6739562624254,1457.142857142857
1650662042008.77,387.45387453874537,1454.212454212454
1650662042009.989,387.45387453874537,1451.2820512820513
1650662042011.147,387.45387453874537,1446.8864468864467
1650662042024.93,387.8942881500426,1443.2234432234432
1650662042025.167,387.23404255319144,1440.2930402930401
1650662042052.561,387.45387453874537,1435.8974358974358
1650662042053.621,387.45387453874537,1432.2344322344322
1650662042053.804,387.6739562624254,1430.7692307692307
1650662042071.2122,387.6739562624254,1432.9670329670328
1650662042072.583,387.6739562624254,1435.164835164835
1650662042073.6238,387.6739562624254,1437.3626373626373
1650662042082.4438,387.8942881500426,1438.095238095238
1650662042082.658,387.6739562624254,1441.0256410256409
1650662042119.885,387.8942881500426,1439.5604395604394
1650662042120.97,387.8942881500426,1436.6300366300366
1650662042121.0178,388.1148706283764,1432.9670329670328
1650662042132.501,387.8942881500426,1432.2344322344322
1650662042133.7048,387.8942881500426,1431.5018315018315
1650662042134.818,388.1148706283764,1430.03663003663
1650662042159.78,388.33570412517776,1425.6410256410256
1650662042159.956,387.8942881500426,1424.1758241758241
1650662042161.159,388.33570412517776,1421.245421245421
1650662042186.137,388.33570412517776,1424.1758241758241
1650662042187.279,388.5567890691716,1430.03663003663
1650662042187.5168,388.5567890691716,1435.164835164835
1650662042188.574,388.5567890691716,1442.4908424908424
1650662042202.3262,388.7781258900598,1451.2820512820513
1650662042203.532,388.33570412517776,1462.2710622710622
1650662042204.7651,388.5567890691716,1472.5274725274724
1650662042233.5762,388.9997150185238,1479.8534798534797
1650662042234.698,388.7781258900598,1488.6446886446886
1650662042234.8508,389.2215568862275,1495.970695970696
1650662042247.3372,388.9997150185238,1503.2967032967033
1650662042248.519,388.9997150185238,1509.89010989011
1650662042262.2449,389.2215568862275,1515.018315018315
1650662042304.6711,389.2215568862275,1520.14652014652
1650662042304.834,388.9997150185238,1524.5421245421244
1650662042305.967,389.2215568862275,1528.937728937729
1650662042307.2332,389.2215568862275,1531.135531135531
1650662042308.336,389.44365192582023,1532.6007326007325
1650662042308.468,388.9997150185238,1535.5311355311355
1650662042309.695,389.2215568862275,1536.9963369963368
1650662042323.3499,389.2215568862275,1539.194139194139
1650662042348.492,389.2215568862275,1537.7289377289376
1650662042348.806,389.44365192582023,1536.263736263736
1650662042367.2258,389.44365192582023,1534.7985347985348
1650662042368.2449,389.44365192582023,1534.7985347985348
1650662042368.339,389.66600057093916,1535.5311355311355
1650662042369.602,389.44365192582023,1535.5311355311355
1650662042374.6309,389.44365192582023,1532.6007326007325
1650662042405.792,389.2215568862275,1531.135531135531
1650662042406.026,389.66600057093916,1526.7399267399267
1650662042407.055,389.66600057093916,1523.0769230769229
1650662042434.339,389.44365192582023,1516.4835164835163
1650662042434.5059,389.8886032562125,1504.7619047619046
1650662042434.5542,389.44365192582023,1493.7728937728937
1650662042434.613,389.44365192582023,1482.7838827838827
1650662042435.803,389.66600057093916,1474.7252747252746
1650662042463.1592,389.66600057093916,1470.3296703296703
1650662042464.425,389.66600057093916,1468.8644688644688
1650662042464.58,389.66600057093916,1467.3992673992673
1650662042487.063,389.66600057093916,1466.6666666666665
1650662042488.302,389.8886032562125,1467.3992673992673
1650662042489.469,389.8886032562125,1472.5274725274724
1650662042489.6719,389.66600057093916,1477.6556776556777
1650662042503.311,389.66600057093916,1482.051282051282
1650662042504.4192,389.8886032562125,1484.9816849816848
1650662042531.865,390.33457249070636,1484.2490842490843
1650662042532.072,389.8886032562125,1486.4468864468863
1650662042533.208,389.8886032562125,1486.4468864468863
1650662042548.368,390.1114604172621,1487.179487179487
1650662042549.834,389.8886032562125,1486.4468864468863
1650662042550.055,390.1114604172621,1484.2490842490843
1650662042563.212,389.8886032562125,1482.7838827838827
1650662042603.193,390.1114604172621,1480.5860805860805
1650662042604.4841,390.1114604172621,1479.120879120879
1650662042605.706,389.8886032562125,1479.8534798534797
1650662042606.998,390.1114604172621,1479.8534798534797
1650662042608.061,390.1114604172621,1480.5860805860805
1650662042608.249,390.1114604172621,1480.5860805860805
1650662042616.88,390.1114604172621,1479.120879120879
1650662042625.661,390.1114604172621,1475.4578754578754
1650662042651.727,390.33457249070636,1473.9926739926739
1650662042651.864,390.1114604172621,1475.4578754578754
1650662042653.096,390.33457249070636,1476.923076923077
1650662042668.128,390.33457249070636,1479.8534798534797
1650662042669.2048,390.33457249070636,1481.3186813186812
1650662042669.3599,390.33457249070636,1482.051282051282
1650662042678.106,390.33457249070636,1482.7838827838827
1650662042708.008,390.33457249070636,1482.051282051282
1650662042709.137,390.5579399141631,1482.7838827838827
1650662042727.9949,390.5579399141631,1482.7838827838827
1650662042728.221,390.33457249070636,1484.2490842490843
1650662042729.686,390.33457249070636,1487.9120879120878
1650662042730.45,390.5579399141631,1490.10989010989
1650662042744.26,390.78156312625254,1491.5750915750914
1650662042744.4202,390.33457249070636,1495.970695970696
1650662042745.437,390.5579399141631,1502.5641025641025
1650662042775.387,390.5579399141631,1512.087912087912
1650662042776.683,390.78156312625254,1522.3443223443223
1650662042776.885,390.33457249070636,1532.6007326007325
1650662042789.192,390.33457249070636,1543.5897435897434
1650662042816.3481,390.5579399141631,1561.1721611721612
1650662042816.448,390.78156312625254,1580.2197802197802
1650662042816.4922,390.33457249070636,1600.0
1650662042836.762,390.5579399141631,1617.5824175824175
1650662042837.88,390.5579399141631,1630.03663003663
1650662042838.123,390.5579399141631,1638.095238095238
1650662042845.3801,390.5579399141631,1644.6886446886447
1650662042846.656,390.5579399141631,1647.6190476190475
1650662042855.32,390.5579399141631,1646.153846153846
1650662042855.539,390.78156312625254,1639.5604395604394
1650662042864.1118,390.5579399141631,1631.5018315018315
1650662042889.093,391.00544256659987,1621.245421245421
1650662042890.167,390.78156312625254,1612.4542124542124
1650662042909.02,391.00544256659987,1602.9304029304028
1650662042909.219,390.78156312625254,1594.139194139194
1650662042910.357,390.78156312625254,1584.6153846153845
1650662042911.624,390.78156312625254,1574.3589743589744
1650662042925.179,390.78156312625254,1564.8351648351647
1650662042925.3289,390.5579399141631,1556.7765567765566
1650662042956.42,391.00544256659987,1548.7179487179485
1650662042956.5781,390.78156312625254,1543.5897435897434
1650662042966.362,391.00544256659987,1539.9267399267399
1650662042966.5078,390.78156312625254,1537.7289377289376
1650662042967.743,390.78156312625254,1536.263736263736
1650662042981.7468,391.00544256659987,1534.065934065934
1650662042981.955,390.78156312625254,1533.3333333333333
1650662042986.5068,391.00544256659987,1533.3333333333333
1650662043014.833,391.00544256659987,1530.4029304029302
1650662043015.034,391.00544256659987,1526.7399267399267
1650662043026.305,391.22957867583835,1522.3443223443223
1650662043026.428,390.78156312625254,1519.4139194139193
1650662043027.653,391.00544256659987,1515.018315018315
1650662043041.507,391.22957867583835,1510.6227106227104
1650662043081.347,391.00544256659987,1504.0293040293038
1650662043082.105,391.00544256659987,1498.9010989010987
1650662043082.593,391.00544256659987,1494.5054945054944
1650662043083.855,391.00544256659987,1490.10989010989
1650662043086.22,391.22957867583835,1487.179487179487
1650662043086.355,391.00544256659987,1485.7142857142856
1650662043095.309,391.00544256659987,1484.9816849816848
1650662043103.7449,390.78156312625254,1485.7142857142856
1650662043103.919,391.22957867583835,1486.4468864468863
1650662043130.0671,391.22957867583835,1487.9120879120878
1650662043131.334,390.78156312625254,1489.3772893772893
1650662043148.822,391.22957867583835,1490.8424908424906
1650662043150.495,391.22957867583835,1491.5750915750914
1650662043150.83,391.00544256659987,1492.3076923076922
1650662043151.286,391.22957867583835,1490.10989010989
1650662043165.079,390.5579399141631,1487.179487179487
1650662043193.682,391.22957867583835,1479.8534798534797
1650662043193.873,391.22957867583835,1474.7252747252746
1650662043206.377,391.00544256659987,1468.131868131868
1650662043207.378,391.4539718956123,1460.8058608058607
1650662043207.505,391.22957867583835,1454.9450549450548
1650662043208.792,391.22957867583835,1448.3516483516482
1650662043217.4531,391.4539718956123,1441.7582417582416
1650662043244.929,391.22957867583835,1437.3626373626373
1650662043245.166,391.4539718956123,1432.9670329670328
1650662043246.2039,391.22957867583835,1431.5018315018315
1650662043267.4849,391.22957867583835,1428.5714285714284
1650662043268.5918,391.67862266857964,1427.106227106227
1650662043269.804,391.4539718956123,1425.6410256410256
1650662043269.9531,391.4539718956123,1424.9084249084249
1650662043283.701,391.22957867583835,1421.9780219780218
1650662043308.541,391.4539718956123,1419.047619047619
1650662043308.682,391.67862266857964,1416.8498168498168
1650662043309.884,391.22957867583835,1416.8498168498168
1650662043329.893,391.4539718956123,1416.117216117216
1650662043330.973,391.4539718956123,1417.5824175824175
1650662043332.304,391.67862266857964,1418.3150183150183
1650662043332.638,391.4539718956123,1419.047619047619
1650662043346.142,391.22957867583835,1418.3150183150183
1650662043376.162,391.4539718956123,1418.3150183150183
1650662043376.2878,391.9035314384152,1419.047619047619
1650662043377.33,391.4539718956123,1417.5824175824175
1650662043390.2249,391.67862266857964,1413.9194139194137
1650662043391.212,391.4539718956123,1411.7216117216117
1650662043392.1511,391.4539718956123,1410.2564102564102
1650662043392.3281,391.4539718956123,1410.2564102564102
1650662043406.056,391.4539718956123,1409.5238095238094
1650662043434.9922,391.67862266857964,1409.5238095238094
1650662043435.942,391.22957867583835,1410.2564102564102
1650662043436.2249,391.4539718956123,1408.058608058608
1650662043446.0671,391.67862266857964,1404.3956043956043
1650662043447.1108,391.4539718956123,1402.197802197802
1650662043455.912,391.9035314384152,1402.197802197802
1650662043456.134,391.4539718956123,1403.6630036630036
1650662043488.504,391.67862266857964,1402.9304029304028
1650662043489.5571,391.67862266857964,1401.4652014652013
1650662043489.682,391.67862266857964,1398.5347985347985
1650662043504.8972,391.67862266857964,1397.8021978021977
1650662043505.0781,391.4539718956123,1394.139194139194
1650662043505.764,391.67862266857964,1392.6739926739926
1650662043519.6099,392.1286986498133,1389.0109890109889
1650662043519.816,391.4539718956123,1388.278388278388
1650662043544.665,391.67862266857964,1384.6153846153845
1650662043545.836,391.67862266857964,1383.8827838827838
1650662043545.969,391.9035314384152,1382.4175824175823
1650662043565.8792,391.67862266857964,1383.8827838827838
1650662043567.113,391.67862266857964,1383.8827838827838
1650662043568.2212,391.9035314384152,1382.4175824175823
1650662043582.0369,391.9035314384152,1380.952380952381
1650662043582.236,391.67862266857964,1380.2197802197802
1650662043612.119,391.9035314384152,1380.2197802197802
1650662043613.1958,391.9035314384152,1379.4871794871794
1650662043613.334,392.1286986498133,1377.2893772893772
1650662043625.8572,391.9035314384152,1374.3589743589744
1650662043627.0571,391.67862266857964,1368.4981684981683
1650662043635.668,391.9035314384152,1364.8351648351647
1650662043644.444,392.1286986498133,1358.974358974359
1650662043644.629,391.67862266857964,1355.3113553113553
1650662043673.228,391.9035314384152,1352.3809523809523
1650662043674.5452,391.9035314384152,1349.4505494505493
1650662043674.845,392.1286986498133,1348.7179487179487
1650662043693.2659,391.9035314384152,1353.113553113553
1650662043694.4312,391.67862266857964,1357.5091575091574
1650662043695.6191,392.1286986498133,1362.6373626373625
1650662043704.4612,392.1286986498133,1366.3003663003662
1650662043704.719,391.67862266857964,1371.4285714285713
1650662043729.452,392.1286986498133,1375.091575091575
1650662043730.664,391.9035314384152,1376.5567765567764
1650662043745.6318,392.35412474849096,1378.7545787545787
1650662043745.862,391.9035314384152,1381.6849816849815
1650662043746.9312,391.9035314384152,1386.080586080586
1650662043760.5432,392.1286986498133,1391.9413919413919
1650662043791.841,391.9035314384152,1399.2673992673992
1650662043792.063,392.1286986498133,1409.5238095238094
1650662043793.152,391.9035314384152,1422.7106227106226
1650662043805.6482,392.1286986498133,1439.5604395604394
1650662043806.8308,392.1286986498133,1458.6080586080584
1650662043807.005,391.9035314384152,1476.923076923077
1650662043808.058,392.35412474849096,1495.970695970696
1650662043821.708,392.35412474849096,1515.018315018315
1650662043849.3298,392.1286986498133,1531.8681318681317
1650662043849.4722,392.1286986498133,1546.5201465201465
1650662043850.56,391.9035314384152,1557.5091575091574
1650662043869.181,392.1286986498133,1564.102564102564
1650662043869.3281,392.35412474849096,1566.3003663003662
1650662043870.532,391.9035314384152,1567.032967032967
1650662043871.753,392.35412474849096,1563.3699633699632
1650662043885.487,392.1286986498133,1558.2417582417581
1650662043916.716,392.35412474849096,1551.6483516483515
1650662043916.909,392.1286986498133,1543.5897435897434
1650662043917.957,392.1286986498133,1534.7985347985348
1650662043926.7522,392.35412474849096,1525.2747252747251
1650662043927.867,392.35412474849096,1516.4835164835163
1650662043928.036,392.1286986498133,1509.1575091575091
1650662043937.994,392.35412474849096,1502.5641025641025
1650662043944.0999,391.9035314384152,1497.4358974358972
1650662043969.178,392.35412474849096,1493.7728937728937
1650662043969.444,392.1286986498133,1493.7728937728937
1650662043970.4512,392.1286986498133,1491.5750915750914
1650662043986.794,392.5798101811907,1489.3772893772893
1650662043987.845,392.1286986498133,1487.179487179487
1650662043988.036,392.35412474849096,1485.7142857142856
1650662043996.76,392.35412474849096,1483.5164835164835
1650662044040.312,392.35412474849096,1480.5860805860805
1650662044041.518,392.5798101811907,1476.923076923077
1650662044041.688,392.35412474849096,1473.9926739926739
1650662044046.606,392.5798101811907,1471.062271062271
1650662044047.7969,392.35412474849096,1467.3992673992673
1650662044048.931,392.35412474849096,1463.003663003663
1650662044049.033,392.35412474849096,1459.3406593406592
1650662044062.9749,392.1286986498133,1458.6080586080584
1650662044099.23,392.8057553956835,1456.4102564102564
1650662044107.7212,392.5798101811907,1454.9450549450548
1650662044107.9768,392.1286986498133,1455.6776556776556
1650662044109.011,392.5798101811907,1457.142857142857
1650662044110.2458,392.35412474849096,1460.8058608058607
1650662044111.357,392.5798101811907,1463.003663003663
1650662044111.469,392.5798101811907,1466.6666666666665
1650662044125.326,392.35412474849096,1467.3992673992673
1650662044150.207,392.8057553956835,1466.6666666666665
1650662044150.468,392.5798101811907,1461.5384615384614
1650662044151.519,392.5798101811907,1457.8754578754579
1650662044166.518,392.5798101811907,1454.9450549450548
1650662044167.5771,392.5798101811907,1449.084249084249
1650662044167.685,392.8057553956835,1442.4908424908424
1650662044176.5298,392.5798101811907,1436.6300366300366
1650662044185.25,392.5798101811907,1430.03663003663
1650662044216.275,392.8057553956835,1426.3736263736262
1650662044217.731,392.5798101811907,1421.245421245421
1650662044217.864,392.5798101811907,1413.1868131868132
1650662044227.693,392.8057553956835,1402.9304029304028
1650662044228.951,392.8057553956835,1392.6739926739926
1650662044238.92,393.0319608407717,1386.080586080586
1650662044239.168,392.5798101811907,1384.6153846153845
1650662044270.257,392.8057553956835,1386.8131868131868
1650662044271.429,392.8057553956835,1388.278388278388
1650662044287.527,392.8057553956835,1389.0109890109889
1650662044287.776,392.5798101811907,1391.2087912087911
1650662044288.8801,392.5798101811907,1391.9413919413919
1650662044290.147,392.8057553956835,1391.9413919413919
1650662044298.845,392.8057553956835,1390.4761904761904
1650662044299.003,392.5798101811907,1389.0109890109889
1650662044326.3162,393.0319608407717,1388.278388278388
1650662044327.597,392.8057553956835,1389.0109890109889
1650662044344.868,392.8057553956835,1389.0109890109889
1650662044345.03,392.8057553956835,1389.0109890109889
1650662044346.19,392.5798101811907,1387.5457875457876
1650662044347.532,393.0319608407717,1386.8131868131868
1650662044361.217,392.8057553956835,1386.080586080586
1650662044361.424,392.5798101811907,1384.6153846153845
1650662044387.5388,393.0319608407717,1383.150183150183
1650662044388.782,392.8057553956835,1381.6849816849815
1650662044407.365,393.0319608407717,1380.952380952381
1650662044407.764,392.8057553956835,1379.4871794871794
1650662044408.702,393.0319608407717,1378.021978021978
1650662044413.709,393.0319608407717,1378.7545787545787
1650662044449.8489,392.5798101811907,1380.2197802197802
1650662044450.0361,392.8057553956835,1383.150183150183
1650662044451.235,392.8057553956835,1382.4175824175823
1650662044466.0708,392.8057553956835,1380.2197802197802
1650662044466.2969,393.2584269662922,1376.5567765567764
1650662044467.391,393.0319608407717,1373.6263736263736
1650662044468.6602,392.8057553956835,1372.8937728937728
1650662044477.262,393.2584269662922,1373.6263736263736
1650662044477.409,392.5798101811907,1376.5567765567764
1650662044503.656,393.0319608407717,1378.7545787545787
1650662044504.834,393.0319608407717,1380.2197802197802
1650662044528.488,393.0319608407717,1381.6849816849815
1650662044529.68,393.2584269662922,1380.2197802197802
1650662044529.8171,392.8057553956835,1375.8241758241757
1650662044531.055,393.2584269662922,1367.032967032967
1650662044539.8518,393.0319608407717,1358.974358974359
1650662044565.909,392.8057553956835,1355.3113553113553
1650662044566.036,393.0319608407717,1352.3809523809523
1650662044567.313,393.0319608407717,1347.985347985348
1650662044586.0342,393.2584269662922,1345.7875457875457
1650662044588.391,393.2584269662922,1344.3223443223442
1650662044588.5469,392.8057553956835,1344.3223443223442
1650662044589.8499,393.2584269662922,1342.8571428571427
1650662044604.021,393.2584269662922,1345.7875457875457
1650662044630.767,393.2584269662922,1347.985347985348
1650662044630.948,393.2584269662922,1351.6483516483515
1650662044631.0142,393.0319608407717,1356.0439560439559
1650662044645.229,393.2584269662922,1358.2417582417581
1650662044648.729,393.0319608407717,1358.2417582417581
1650662044648.939,393.0319608407717,1359.7069597069597
1650662044653.555,393.2584269662922,1358.974358974359
1650662044678.468,393.0319608407717,1358.974358974359
1650662044678.742,393.2584269662922,1356.7765567765566
1650662044679.872,393.0319608407717,1355.3113553113553
1650662044708.394,393.2584269662922,1354.5787545787546
1650662044709.458,393.0319608407717,1355.3113553113553
1650662044710.749,393.2584269662922,1356.7765567765566
1650662044710.9202,393.2584269662922,1358.974358974359
1650662044712.114,393.2584269662922,1356.7765567765566
1650662044742.1082,392.8057553956835,1355.3113553113553
1650662044746.48,393.2584269662922,1353.8461538461538
1650662044746.645,393.0319608407717,1355.3113553113553
1650662044767.101,393.0319608407717,1354.5787545787546
1650662044768.301,393.2584269662922,1353.113553113553
1650662044770.669,393.2584269662922,1351.6483516483515
1650662044770.8298,393.2584269662922,1348.7179487179487
1650662044784.687,393.2584269662922,1345.7875457875457
1650662044810.832,393.2584269662922,1345.054945054945
1650662044811.044,393.2584269662922,1345.7875457875457
1650662044812.1282,392.8057553956835,1347.985347985348
1650662044828.293,393.0319608407717,1351.6483516483515
1650662044829.3828,393.2584269662922,1358.974358974359
1650662044829.521,393.0319608407717,1370.6959706959706
1650662044830.771,393.2584269662922,1385.3479853479853
1650662044844.5908,393.0319608407717,1405.8608058608058
1650662044871.9028,393.2584269662922,1429.3040293040292
1650662044872.1,393.4851542231191,1454.212454212454
1650662044873.2769,393.0319608407717,1480.5860805860805
1650662044885.722,393.4851542231191,1504.0293040293038
1650662044886.793,393.2584269662922,1521.6117216117216
1650662044886.911,393.0319608407717,1535.5311355311355
1650662044895.7168,393.0319608407717,1544.3223443223442
1650662044904.5352,393.0319608407717,1550.18315018315
1650662044938.112,393.4851542231191,1553.8461538461538
1650662044938.297,393.0319608407717,1553.113553113553
1650662044939.499,393.0319608407717,1550.18315018315
1650662044948.137,393.2584269662922,1546.5201465201465
1650662044949.2358,393.2584269662922,1539.194139194139
1650662044954.278,393.4851542231191,1531.135531135531
1650662044954.438,393.0319608407717,1523.8095238095236
1650662044981.8462,393.2584269662922,1515.7509157509157
1650662044983.362,393.0319608407717,1507.6923076923076
1650662045004.228,393.2584269662922,1499.6336996336995
1650662045004.3682,393.2584269662922,1493.7728937728937
1650662045005.5898,393.0319608407717,1488.6446886446886
1650662045006.83,393.4851542231191,1482.051282051282
1650662045026.787,393.4851542231191,1475.4578754578754
1650662045026.983,392.8057553956835,1468.8644688644688
1650662045049.708,393.4851542231191,1461.5384615384614
1650662045050.572,393.0319608407717,1454.212454212454
1650662045050.72,393.4851542231191,1446.153846153846
1650662045063.4028,393.2584269662922,1443.2234432234432
1650662045064.3462,393.2584269662922,1440.2930402930401
1650662045069.118,393.4851542231191,1436.6300366300366
1650662045077.909,393.4851542231191,1430.7692307692307
1650662045078.055,393.2584269662922,1426.3736263736262
1650662045110.416,393.4851542231191,1420.5128205128203
1650662045128.016,393.0319608407717,1416.8498168498168
1650662045130.7422,393.2584269662922,1413.9194139194137
1650662045130.916,393.2584269662922,1413.1868131868132
1650662045130.965,393.0319608407717,1414.6520146520145
1650662045131.489,393.4851542231191,1419.047619047619
1650662045156.6318,393.2584269662922,1424.9084249084249
1650662045156.873,393.0319608407717,1431.5018315018315
1650662045157.912,393.4851542231191,1433.6996336996335
1650662045182.882,393.2584269662922,1435.164835164835
1650662045183.951,393.4851542231191,1435.8974358974358
1650662045184.0361,393.2584269662922,1432.9670329670328
1650662045185.3481,393.4851542231191,1428.5714285714284
1650662045199.134,393.2584269662922,1422.7106227106226
1650662045201.5432,392.8057553956835,1418.3150183150183
1650662045201.7761,393.2584269662922,1413.1868131868132
1650662045239.137,393.2584269662922,1408.058608058608
1650662045240.232,393.2584269662922,1403.6630036630036
1650662045240.417,393.71214306316705,1400.0
1650662045246.0151,393.0319608407717,1397.8021978021977
1650662045246.501,393.4851542231191,1394.8717948717947
1650662045260.227,393.2584269662922,1394.139194139194
1650662045260.3518,393.4851542231191,1392.6739926739926
1650662045287.8179,393.4851542231191,1394.139194139194
1650662045288.981,393.2584269662922,1396.3369963369962
1650662045304.638,393.2584269662922,1398.5347985347985
1650662045304.807,393.71214306316705,1398.5347985347985
1650662045305.1628,393.2584269662922,1398.5347985347985
1650662045306.3992,393.4851542231191,1396.3369963369962
1650662045320.089,393.2584269662922,1392.6739926739926
1650662045320.218,393.4851542231191,1388.278388278388
1650662045350.2131,393.2584269662922,1384.6153846153845
1650662045351.429,393.2584269662922,1380.952380952381
1650662045365.1519,393.4851542231191,1375.8241758241757
1650662045365.368,393.4851542231191,1372.161172161172
1650662045366.477,393.2584269662922,1370.6959706959706
1650662045371.42,393.4851542231191,1367.032967032967
1650662045401.968,393.0319608407717,1365.5677655677655
1650662045402.152,393.4851542231191,1361.1721611721612
1650662045402.188,393.4851542231191,1359.7069597069597
1650662045426.369,393.2584269662922,1359.7069597069597
1650662045427.5159,393.71214306316705,1356.7765567765566
1650662045427.819,393.4851542231191,1353.8461538461538
1650662045428.901,393.2584269662922,1350.18315018315
1650662045442.6091,393.2584269662922,1347.985347985348
1650662045479.991,393.2584269662922,1348.7179487179487
1650662045481.1921,393.71214306316705,1349.4505494505493
1650662045481.3508,393.2584269662922,1352.3809523809523
1650662045482.5808,393.4851542231191,1355.3113553113553
1650662045483.907,393.4851542231191,1357.5091575091574
1650662045484.954,393.2584269662922,1360.4395604395604
1650662045485.143,393.2584269662922,1363.3699633699632
1650662045494.021,393.2584269662922,1365.5677655677655
1650662045518.7148,393.2584269662922,1367.7655677655678
1650662045519.845,393.71214306316705,1369.230769230769
1650662045519.9521,393.0319608407717,1369.9633699633698
1650662045543.8071,393.4851542231191,1366.3003663003662
1650662045545.147,393.4851542231191,1363.3699633699632
1650662045546.168,393.4851542231191,1357.5091575091574
1650662045546.364,393.4851542231191,1353.8461538461538
1650662045560.087,393.2584269662922,1350.18315018315
1650662045586.236,393.2584269662922,1347.2527472527472
1650662045612.349,393.2584269662922,1345.054945054945
1650662045612.538,393.2584269662922,1344.3223443223442
1650662045613.688,393.71214306316705,1342.1245421245421
1650662045614.866,393.2584269662922,1340.6593406593406
1650662045615.03,393.71214306316705,1338.4615384615383
1650662045616.297,393.2584269662922,1336.9963369963368
1650662045641.143,393.2584269662922,1334.065934065934
1650662045642.2788,393.4851542231191,1330.4029304029302
1650662045667.2412,393.2584269662922,1326.7399267399267
1650662045667.391,393.2584269662922,1326.007326007326
1650662045668.585,393.4851542231191,1326.007326007326
1650662045672.211,393.2584269662922,1327.4725274725274
1650662045672.477,393.71214306316705,1326.7399267399267
1650662045673.647,393.2584269662922,1327.4725274725274
1650662045707.28,393.4851542231191,1328.937728937729
1650662045708.929,393.4851542231191,1334.065934065934
1650662045729.786,393.2584269662922,1339.194139194139
1650662045729.971,393.4851542231191,1345.054945054945
1650662045731.001,393.4851542231191,1351.6483516483515
1650662045732.313,393.2584269662922,1358.2417582417581
1650662045733.3801,393.4851542231191,1361.904761904762
1650662045733.5352,393.2584269662922,1362.6373626373625
1650662045758.5361,393.4851542231191,1358.974358974359
1650662045759.598,393.2584269662922,1355.3113553113553
1650662045784.618,393.4851542231191,1350.18315018315
1650662045784.776,393.4851542231191,1347.985347985348
1650662045785.9932,393.2584269662922,1344.3223443223442
1650662045794.939,393.4851542231191,1341.3919413919414
1650662045795.849,393.4851542231191,1341.3919413919414
1650662045796.146,393.2584269662922,1345.054945054945
1650662045820.974,393.4851542231191,1351.6483516483515
1650662045822.1519,393.0319608407717,1361.904761904762
1650662045849.638,393.4851542231191,1373.6263736263736
1650662045849.8,393.2584269662922,1389.7435897435896
1650662045854.875,393.2584269662922,1406.5934065934066
1650662045855.9648,393.4851542231191,1426.3736263736262
1650662045857.487,393.2584269662922,1442.4908424908424
1650662045857.759,393.0319608407717,1458.6080586080584
1650662045883.476,393.4851542231191,1473.9926739926739
1650662045884.614,393.4851542231191,1492.3076923076922
1650662045911.8918,393.71214306316705,1509.1575091575091
1650662045912.017,393.0319608407717,1523.8095238095236
1650662045913.2969,393.2584269662922,1531.8681318681317
1650662045914.501,393.4851542231191,1535.5311355311355
1650662045923.35,393.2584269662922,1537.7289377289376
1650662045923.485,393.4851542231191,1535.5311355311355
1650662045948.3572,393.4851542231191,1528.2051282051282
1650662045949.537,393.4851542231191,1519.4139194139193
1650662045968.142,393.71214306316705,1509.1575091575091
1650662045968.2988,393.2584269662922,1495.970695970696
1650662045969.543,393.4851542231191,1482.051282051282
1650662045974.625,393.4851542231191,1469.5970695970695
1650662046004.487,393.4851542231191,1458.6080586080584
1650662046004.7458,393.4851542231191,1449.8168498168498
1650662046005.7522,393.4851542231191,1442.4908424908424
1650662046025.586,393.4851542231191,1438.8278388278388
1650662046026.825,393.71214306316705,1435.8974358974358
1650662046026.9812,393.2584269662922,1435.164835164835
1650662046028.238,393.71214306316705,1434.4322344322343
1650662046037.023,393.4851542231191,1432.2344322344322
1650662046066.8892,393.2584269662922,1431.5018315018315
1650662046067.114,393.4851542231191,1427.8388278388277
1650662046068.239,393.4851542231191,1420.5128205128203
1650662046084.293,393.71214306316705,1414.6520146520145
1650662046085.5442,393.4851542231191,1413.1868131868132
1650662046085.723,393.4851542231191,1413.9194139194137
1650662046088.1802,393.71214306316705,1415.3846153846152
1650662046101.968,393.4851542231191,1417.5824175824175
1650662046131.716,393.71214306316705,1420.5128205128203
1650662046131.915,393.4851542231191,1422.7106227106226
1650662046133.162,393.4851542231191,1424.1758241758241
1650662046144.4211,393.71214306316705,1425.6410256410256
1650662046146.7668,393.4851542231191,1426.3736263736262
1650662046146.974,393.4851542231191,1425.6410256410256
1650662046153.1328,393.71214306316705,1421.9780219780218
1650662046178.031,393.2584269662922,1420.5128205128203
1650662046178.179,393.4851542231191,1418.3150183150183
1650662046179.321,393.2584269662922,1416.8498168498168
1650662046204.252,393.71214306316705,1415.3846153846152
1650662046205.3462,393.4851542231191,1412.4542124542124
1650662046208.18,393.71214306316705,1409.5238095238094
1650662046208.3408,393.71214306316705,1406.5934065934066
1650662046216.727,393.4851542231191,1402.197802197802
1650662046241.617,393.2584269662922,1397.069597069597
1650662046241.7742,393.71214306316705,1389.7435897435896
1650662046242.9932,393.2584269662922,1382.4175824175823
1650662046264.294,393.71214306316705,1376.5567765567764
1650662046265.761,393.71214306316705,1373.6263736263736
1650662046265.916,393.4851542231191,1370.6959706959706
1650662046279.1592,393.4851542231191,1368.4981684981683
1650662046308.02,393.2584269662922,1369.230769230769
1650662046309.1072,393.71214306316705,1367.032967032967
1650662046309.299,393.4851542231191,1363.3699633699632
1650662046327.91,393.2584269662922,1360.4395604395604
1650662046329.073,393.71214306316705,1356.7765567765566
1650662046330.188,393.4851542231191,1352.3809523809523
1650662046330.2852,393.2584269662922,1348.7179487179487
1650662046331.625,393.71214306316705,1345.054945054945
1650662046340.41,393.4851542231191,1342.8571428571427
1650662046366.505,393.71214306316705,1340.6593406593406
1650662046366.7058,393.2584269662922,1342.1245421245421
1650662046367.837,393.71214306316705,1341.3919413919414
1650662046384.198,393.71214306316705,1341.3919413919414
1650662046385.32,393.4851542231191,1339.9267399267399
1650662046390.323,393.93939393939394,1340.6593406593406
1650662046390.472,393.2584269662922,1341.3919413919414
1650662046437.785,393.4851542231191,1342.1245421245421
1650662046439.066,393.71214306316705,1343.5897435897434
1650662046442.6301,393.4851542231191,1346.5201465201465
1650662046443.001,393.4851542231191,1349.4505494505493
1650662046444.132,393.71214306316705,1352.3809523809523
1650662046445.471,393.71214306316705,1354.5787545787546
1650662046455.3088,393.93939393939394,1355.3113553113553
1650662046455.5718,393.4851542231191,1355.3113553113553
1650662046496.5068,393.71214306316705,1354.5787545787546
1650662046497.545,393.71214306316705,1353.113553113553
1650662046497.664,393.71214306316705,1349.4505494505493
1650662046500.3171,393.71214306316705,1346.5201465201465
1650662046501.4292,393.4851542231191,1342.8571428571427
1650662046507.618,393.71214306316705,1341.3919413919414
1650662046507.7979,393.4851542231191,1343.5897435897434
1650662046521.3972,393.4851542231191,1342.8571428571427
1650662046523.467,393.71214306316705,1338.4615384615383
1650662046547.6401,393.71214306316705,1335.5311355311355
1650662046547.845,393.93939393939394,1333.3333333333333
1650662046548.93,393.71214306316705,1332.6007326007325
1650662046565.247,393.4851542231191,1332.6007326007325
1650662046566.298,393.71214306316705,1333.3333333333333
1650662046581.319,393.71214306316705,1335.5311355311355
1650662046581.558,393.2584269662922,1340.6593406593406
1650662046618.84,393.71214306316705,1344.3223443223442
1650662046619.049,393.4851542231191,1347.2527472527472
1650662046619.104,394.1669073058042,1349.4505494505493
1650662046626.135,393.4851542231191,1350.9157509157508
1650662046626.3918,393.4851542231191,1353.113553113553
1650662046635.0059,393.93939393939394,1351.6483516483515
1650662046635.227,393.4851542231191,1350.9157509157508
1650662046667.6099,393.71214306316705,1348.7179487179487
1650662046668.756,393.71214306316705,1345.7875457875457
