Timestamp,GSR,PPG
1650361121613.708,281.40000000000015,0.0
1650361121619.821,281.40000000000015,0.0
1650361121629.512,281.40000000000015,0.0
1650361121655.763,281.40000000000015,0.0
1650361121656.885,281.40000000000015,0.0
1650361121657.083,281.40000000000015,0.0
1650361121683.356,281.40000000000015,0.0
1650361121685.7031,281.40000000000015,0.0
1650361121685.894,374.16905444126076,0.0
1650361121687.0361,374.16905444126076,0.0
1650361121694.932,374.16905444126076,0.0
1650361121720.653,374.16905444126076,0.0
1650361121720.777,374.16905444126076,0.0
1650361121745.821,374.16905444126076,0.0
1650361121747.0552,374.16905444126076,0.0
1650361121771.956,374.16905444126076,0.0
1650361121772.126,374.16905444126076,0.0
1650361121773.385,374.16905444126076,0.0
1650361121798.227,374.16905444126076,0.0
1650361121799.339,371.4285714285714,0.0
1650361121799.4639,370.62177572631003,0.0
1650361121822.043,370.4206241519674,0.0
1650361121823.3389,369.81847737740446,0.0
1650361121824.368,369.6181965881397,0.0
1650361121824.477,369.4181326116373,0.0
1650361121825.65,368.4210526315789,0.0
1650361121825.763,368.2222821688697,0.0
1650361121828.197,367.82538399353274,0.0
1650361121828.4731,367.03414896477545,0.0
1650361121838.25,366.8368718086536,0.0
1650361121848.296,366.4429530201342,0.0
1650361121873.1638,365.8536585365854,0.0
1650361121873.375,365.6576480042861,0.0
1650361121874.491,365.0708745653918,0.0
1650361121903.355,365.0708745653918,0.0
1650361121904.5242,364.2914331465172,0.0
1650361121919.3909,363.9029592108771,0.0
1650361121919.586,363.70903277378096,0.0
1650361121920.709,363.3217993079585,0.0
1650361121921.887,362.93538952406277,0.0
1650361121922.078,362.74249269200106,0.0
1650361121933.25,362.1650305120722,0.0
1650361121943.28,362.1650305120722,0.0
1650361121970.663,361.58940397350995,0.0
1650361121970.846,361.3979348689436,0.0
1650361121971.984,361.0156043374769,0.0
1650361121997.07,360.6340819022457,0.0
1650361121998.158,360.6340819022457,0.0
1650361121998.393,359.87345109412075,0.0
1650361122000.7131,359.6837944664032,0.0
1650361122005.7349,359.494337634975,0.0
1650361122030.677,358.9271627662372,0.0
1650361122030.859,358.73850197109067,0.0
1650361122031.983,358.17370768827084,0.0
1650361122057.005,358.17370768827084,0.0
1650361122058.154,357.7981651376147,0.0
1650361122058.3,357.23632556922274,0.0
1650361122068.425,357.23632556922274,0.0
1650361122093.249,356.6762477136138,0.0
1650361122094.366,356.3038371182459,0.0
1650361122094.545,356.1179232976781,0.0
1650361122120.7139,355.5613441000261,0.0
1650361122121.9448,355.5613441000261,0.0
1650361122124.333,355.19125683060105,0.0
1650361122124.4358,354.6375681995323,0.0
1650361122125.71,354.82193917338185,0.0
1650361122150.882,354.2694004671684,0.0
1650361122151.989,354.2694004671684,0.0
1650361122152.497,353.7185799429904,0.0
1650361122176.9841,353.16946959896507,0.0
1650361122178.251,353.5353535353535,0.0
1650361122203.268,352.8043422072887,0.0
1650361122203.5872,352.622061482821,0.0
1650361122204.4858,352.43996901626645,0.0
1650361122229.5981,351.8948182521268,0.0
1650361122230.908,352.258064516129,0.0
1650361122245.658,351.5323203708473,0.0
1650361122245.8342,351.35135135135135,0.0
1650361122248.2358,351.17056856187287,0.0
1650361122273.1272,350.8095605242868,0.0
1650361122273.4102,350.8095605242868,0.0
1650361122274.54,350.26943802925325,0.0
1650361122300.6848,350.08976660682225,0.0
1650361122301.87,349.73097617217525,0.0
1650361122302.03,349.3729203992833,0.0
1650361122308.281,349.5518565941101,0.0
1650361122333.2678,349.3729203992833,0.0
1650361122334.373,348.83720930232556,0.0
1650361122334.5288,348.65900383141764,0.0
1650361122335.732,348.303138555754,0.0
1650361122360.788,348.303138555754,0.0
1650361122361.85,348.1254781943382,0.0
1650361122362.015,347.59358288770056,0.0
1650361122363.3152,347.77070063694265,0.0
1650361122364.4878,347.06331045003816,0.0
1650361122365.643,347.23988806919357,0.0
1650361122365.8472,346.8869123252859,0.0
1650361122390.825,346.53465346534654,0.0
1650361122415.7568,346.3587921847247,0.0
1650361122416.977,346.3587921847247,0.0
1650361122418.148,345.83227767925007,0.0
1650361122418.315,346.00760456273764,0.0
1650361122420.717,345.65712838693344,0.0
1650361122421.9219,345.83227767925007,0.0
1650361122422.147,345.3073614975968,0.0
1650361122447.0068,345.1327433628319,0.0
1650361122448.235,345.3073614975968,0.0
1650361122473.4111,344.95830174374527,0.0
1650361122474.497,344.95830174374527,0.0
1650361122474.732,344.6099469830851,0.0
1650361122483.314,344.6099469830851,0.0
1650361122484.3708,344.6099469830851,0.0
1650361122484.536,344.08873203932444,0.0
1650361122510.762,344.26229508196724,0.0
1650361122512.052,344.26229508196724,0.0
1650361122536.9822,343.91534391534395,0.0
1650361122538.084,343.91534391534395,0.0
1650361122538.1702,343.5690913667254,0.0
1650361122545.748,343.74213044573156,0.0
1650361122548.134,343.74213044573156,0.0
1650361122548.279,343.2235353281368,0.0
1650361122573.274,343.5690913667254,0.0
1650361122574.487,343.2235353281368,0.0
1650361122598.301,343.2235353281368,0.0
1650361122598.49,343.05101784367935,0.0
1650361122600.781,342.7065026362039,0.0
1650361122602.088,343.05101784367935,0.0
1650361122630.647,342.87867370007535,0.0
1650361122630.814,342.53450439146803,0.0
1650361122631.9639,342.87867370007535,0.0
1650361122656.991,342.3626787057938,0.0
1650361122658.133,342.53450439146803,0.0
1650361122658.302,342.191025319629,0.0
1650361122660.739,342.0195439739414,0.0
1650361122661.946,342.0195439739414,0.0
1650361122690.8792,341.6770963704631,0.0
1650361122691.086,341.6770963704631,0.0
1650361122692.061,341.6770963704631,0.0
1650361122716.9558,341.5061295971979,0.0
1650361122718.08,341.6770963704631,0.0
1650361122718.167,341.3353338334584,0.0
1650361122725.836,341.3353338334584,0.0
1650361122728.3599,341.5061295971979,0.0
1650361122753.134,340.99425430926806,0.0
1650361122753.3691,341.3353338334584,0.0
1650361122754.514,341.16470882279435,0.0
1650361122778.268,341.16470882279435,0.0
1650361122780.71,341.3353338334584,0.0
1650361122781.853,340.99425430926806,0.0
1650361122781.9978,341.3353338334584,0.0
1650361122783.218,341.16470882279435,0.0
1650361122810.7231,341.3353338334584,0.0
1650361122810.858,341.3353338334584,0.0
1650361122812.0698,340.99425430926806,0.0
1650361122840.737,341.5061295971979,0.0
1650361122841.9858,340.99425430926806,0.0
1650361122848.184,340.99425430926806,0.0
1650361122848.5032,341.16470882279435,0.0
1650361122873.2852,340.99425430926806,0.0
1650361122874.358,340.99425430926806,0.0
1650361122874.49,341.16470882279435,0.0
1650361122900.781,340.99425430926806,0.0
1650361122902.005,341.3353338334584,0.0
1650361122904.43,340.6538557524333,0.0
1650361122905.632,340.99425430926806,0.0
1650361122905.772,341.16470882279435,0.0
1650361122930.796,340.99425430926806,0.0
1650361122931.822,341.16470882279435,0.0
1650361122931.905,340.8239700374532,0.0
1650361122957.302,340.99425430926806,0.0
1650361122958.491,341.16470882279435,0.0
1650361122960.773,340.99425430926806,0.0
1650361122961.917,341.3353338334584,0.0
1650361122962.1812,341.16470882279435,0.0
1650361122990.764,341.16470882279435,0.0
1650361122991.8252,341.5061295971979,0.0
1650361122991.908,341.16470882279435,0.0
1650361123017.018,341.5061295971979,0.0
1650361123018.2542,341.3353338334584,0.0
1650361123024.488,341.5061295971979,0.0
1650361123028.397,341.6770963704631,0.0
1650361123028.665,341.3353338334584,0.0
1650361123053.8608,341.8482344102179,0.0
1650361123054.6228,341.8482344102179,0.0
1650361123054.8142,341.6770963704631,0.0
1650361123081.377,342.0195439739414,0.0
1650361123082.3281,341.6770963704631,0.0
1650361123093.5928,342.191025319629,0.0
1650361123095.804,342.0195439739414,0.0
1650361123095.9932,342.0195439739414,0.0
1650361123097.099,342.53450439146803,0.0
1650361123112.17,342.3626787057938,0.0
1650361123112.356,342.3626787057938,0.0
1650361123138.573,342.53450439146803,0.0
1650361123163.6301,342.53450439146803,0.0
1650361123164.694,343.05101784367935,0.0
1650361123188.598,342.7065026362039,0.0
1650361123188.8682,342.87867370007535,0.0
1650361123189.7148,343.2235353281368,0.0
1650361123190.885,343.05101784367935,0.0
1650361123191.181,343.39622641509436,0.0
1650361123193.392,343.2235353281368,0.0
1650361123194.641,343.39622641509436,0.0
1650361123204.701,343.74213044573156,0.0
1650361123204.937,343.5690913667254,0.0
1650361123215.977,343.91534391534395,0.0
1650361123246.915,344.08873203932444,0.0
1650361123247.134,343.91534391534395,0.0
1650361123247.221,344.08873203932444,0.0
1650361123276.0479,343.91534391534395,0.0
1650361123277.015,344.26229508196724,0.0
1650361123286.0151,344.4360333080999,0.0
1650361123286.213,344.26229508196724,0.0
1650361123287.076,344.78403637282145,0.0
1650361123288.286,344.6099469830851,0.0
1650361123298.687,344.78403637282145,0.0
1650361123298.933,344.95830174374527,0.0
1650361123308.3032,344.95830174374527,0.0
1650361123338.7092,345.4821564160972,0.0
1650361123339.5432,345.4821564160972,0.0
1650361123366.093,345.3073614975968,0.0
1650361123366.352,345.83227767925007,0.0
1650361123367.196,345.83227767925007,0.0
1650361123370.791,346.1831093076338,0.0
1650361123370.979,346.1831093076338,0.0
1650361123373.4739,346.1831093076338,0.0
1650361123403.6191,346.3587921847247,0.0
1650361123404.491,346.3587921847247,0.0
1650361123404.725,346.8869123252859,0.0
1650361123428.421,346.8869123252859,0.0
1650361123429.713,347.06331045003816,0.0
1650361123430.815,347.41664545685927,0.0
1650361123431.0269,347.41664545685927,0.0
1650361123433.4421,347.77070063694265,0.0
1650361123463.578,347.59358288770056,0.0
1650361123464.556,348.1254781943382,0.0
1650361123464.791,348.4809803420985,0.0
1650361123486.135,348.303138555754,0.0
1650361123487.252,348.65900383141764,0.0
1650361123488.214,348.83720930232556,0.0
1650361123488.478,348.83720930232556,0.0
1650361123516.06,349.1941673062164,0.0
1650361123517.0742,349.1941673062164,0.0
1650361123546.0662,349.3729203992833,0.0
1650361123547.043,349.5518565941101,0.0
1650361123547.252,349.5518565941101,0.0
1650361123551.079,350.08976660682225,0.0
1650361123553.314,350.08976660682225,0.0
1650361123553.5222,350.08976660682225,0.0
1650361123554.604,350.4492939666239,0.0
1650361123583.58,350.08976660682225,0.0
1650361123584.574,350.8095605242868,0.0
1650361123607.0781,350.62933470331365,0.0
1650361123607.309,350.62933470331365,0.0
1650361123608.377,350.8095605242868,0.0
1650361123609.632,350.9899717150938,0.0
1650361123609.843,351.17056856187287,0.0
1650361123636.3872,351.17056856187287,0.0
1650361123637.0981,351.5323203708473,0.0
1650361123662.3708,351.8948182521268,0.0
1650361123663.346,351.5323203708473,0.0
1650361123663.5388,351.8948182521268,0.0
1650361123671.115,352.258064516129,0.0
1650361123673.303,352.07634769151406,0.0
1650361123673.503,352.43996901626645,0.0
1650361123699.853,352.258064516129,0.0
1650361123700.833,352.622061482821,0.0
1650361123726.0251,352.98681148176877,0.0
1650361123726.228,352.622061482821,0.0
1650361123727.132,353.16946959896507,0.0
1650361123728.301,353.16946959896507,0.0
1650361123753.708,353.16946959896507,0.0
1650361123753.9712,353.5353535353535,0.0
1650361123778.712,353.3523168521874,0.0
1650361123779.707,353.9019963702359,0.0
1650361123797.468,353.9019963702359,0.0
1650361123798.389,353.9019963702359,0.0
1650361123798.5798,354.2694004671684,0.0
1650361123800.8708,354.2694004671684,0.0
1650361123802.0479,354.08560311284043,0.0
1650361123802.308,354.45338873019995,0.0
1650361123808.359,354.45338873019995,0.0
1650361123818.353,354.82193917338185,0.0
1650361123846.145,354.82193917338185,0.0
1650361123846.401,355.0065019505852,0.0
1650361123847.168,355.19125683060105,0.0
1650361123872.37,355.19125683060105,0.0
1650361123873.188,355.74667709147775,0.0
1650361123873.546,355.3762041135121,0.0
1650361123881.042,355.3762041135121,0.0
1650361123883.345,355.93220338983053,0.0
1650361123908.3108,355.74667709147775,0.0
1650361123908.551,356.3038371182459,0.0
1650361123909.677,356.1179232976781,0.0
1650361123936.187,356.3038371182459,0.0
1650361123936.9258,356.6762477136138,0.0
1650361123937.043,356.3038371182459,0.0
1650361123948.555,356.6762477136138,0.0
1650361123950.874,356.8627450980392,0.0
1650361123967.3208,356.6762477136138,0.0
1650361123967.565,357.23632556922274,0.0
1650361123967.649,356.8627450980392,0.0
1650361123974.724,357.4234092694423,0.0
1650361123999.799,357.61068902279277,0.0
1650361124000.0452,357.4234092694423,0.0
1650361124000.784,357.7981651376147,0.0
1650361124025.838,357.61068902279277,0.0
1650361124026.991,357.98583792289537,0.0
1650361124027.205,357.7981651376147,0.0
1650361124028.275,357.98583792289537,0.0
1650361124034.855,358.5500394011033,0.0
1650361124061.04,358.17370768827084,0.0
1650361124061.418,358.36177474402734,0.0
1650361124086.186,358.73850197109067,0.0
1650361124087.1748,358.5500394011033,0.0
1650361124088.2822,358.9271627662372,0.0
1650361124089.466,358.73850197109067,0.0
1650361124089.613,358.9271627662372,0.0
1650361124116.174,359.30508028428534,0.0
1650361124116.951,359.30508028428534,0.0
1650361124117.1082,359.494337634975,0.0
1650361124142.19,359.6837944664032,0.0
1650361124143.476,359.494337634975,0.0
1650361124150.964,360.0633078343445,0.0
1650361124153.217,359.6837944664032,0.0
1650361124153.401,360.25336500395883,0.0
1650361124181.3992,360.44362292051756,0.0
1650361124205.737,360.25336500395883,0.0
1650361124205.896,360.6340819022457,0.0
1650361124207.1208,360.0633078343445,0.0
1650361124215.84,360.82474226804123,0.0
1650361124217.032,361.0156043374769,0.0
1650361124218.2478,360.6340819022457,0.0
1650361124218.523,361.2066684308018,0.0
1650361124243.271,361.2066684308018,0.0
1650361124244.386,361.2066684308018,0.0
1650361124244.524,361.58940397350995,0.0
1650361124269.789,361.3979348689436,0.0
1650361124270.9082,362.1650305120722,0.0
1650361124275.842,361.97295147175817,0.0
1650361124276.884,361.7810760667904,0.0
1650361124277.0369,362.1650305120722,0.0
1650361124303.633,362.1650305120722,0.0
1650361124304.48,362.54980079681275,0.0
1650361124304.6829,362.54980079681275,0.0
1650361124329.7,362.54980079681275,0.0
1650361124330.959,362.54980079681275,0.0
1650361124334.853,362.74249269200106,0.0
1650361124335.758,362.93538952406277,0.0
1650361124335.9111,363.12849162011173,0.0
1650361124363.7349,362.93538952406277,0.0
1650361124364.49,363.51531291611184,0.0
1650361124364.694,363.12849162011173,0.0
1650361124388.745,363.51531291611184,0.0
1650361124395.9219,363.9029592108771,0.0
1650361124396.16,363.70903277378096,0.0
1650361124396.446,364.09709255801545,0.0
1650361124423.438,364.09709255801545,0.0
1650361124424.588,364.09709255801545,0.0
1650361124449.862,364.2914331465172,0.0
1650361124450.116,364.09709255801545,0.0
1650361124450.878,364.4859813084112,0.0
1650361124453.486,364.680737376436,0.0
1650361124454.629,364.680737376436,0.0
1650361124483.577,364.8757016840417,0.0
1650361124483.824,364.680737376436,0.0
1650361124484.6548,365.2662563553653,0.0
1650361124509.665,365.2662563553653,0.0
1650361124509.895,365.0708745653918,0.0
1650361124510.9739,365.4618473895582,0.0
1650361124516.043,365.2662563553653,0.0
1650361124517.0642,365.8536585365854,0.0
1650361124543.4812,365.6576480042861,0.0
1650361124543.678,365.6576480042861,0.0
1650361124544.645,366.24631070566136,0.0
1650361124569.7031,366.0498793242156,0.0
1650361124569.952,366.0498793242156,0.0
1650361124570.946,366.4429530201342,0.0
1650361124573.455,366.24631070566136,0.0
1650361124578.305,366.63980660757454,0.0
1650361124603.508,366.24631070566136,0.0
1650361124603.7258,366.63980660757454,0.0
1650361124604.627,366.8368718086536,0.0
1650361124629.576,366.8368718086536,0.0
1650361124629.77,367.23163841807906,0.0
1650361124630.9358,367.03414896477545,0.0
1650361124634.593,367.23163841807906,0.0
1650361124663.46,367.6272555884729,0.0
1650361124663.654,367.03414896477545,0.0
1650361124664.592,367.6272555884729,0.0
1650361124691.23,367.82538399353274,0.0
1650361124693.289,367.6272555884729,0.0
1650361124693.4832,367.82538399353274,0.0
1650361124694.672,367.82538399353274,0.0
1650361124695.94,368.2222821688697,0.0
1650361124723.277,368.4210526315789,0.0
1650361124723.468,368.0237260717174,0.0
1650361124724.616,368.62003780718334,0.0
1650361124751.172,368.4210526315789,0.0
1650361124753.264,368.62003780718334,0.0
1650361124753.468,368.62003780718334,34.43223443223443
1650361124764.8562,368.62003780718334,164.83516483516482
1650361124765.883,369.2182850960238,327.4725274725275
1650361124768.6208,369.0186536901865,497.4358974358974
1650361124778.363,369.0186536901865,660.8058608058608
1650361124778.5598,369.2182850960238,810.2564102564102
1650361124785.9148,369.2182850960238,941.3919413919414
1650361124813.273,369.6181965881397,1053.4798534798533
1650361124813.484,369.4181326116373,1147.2527472527472
1650361124814.686,369.6181965881397,1221.9780219780218
1650361124839.883,369.81847737740446,1281.3186813186812
1650361124840.7942,369.6181965881397,1326.7399267399267
1650361124848.292,370.0189753320683,1361.1721611721612
1650361124848.492,370.0189753320683,1386.8131868131868
1650361124850.856,370.0189753320683,1405.128205128205
1650361124878.305,370.62177572631003,1421.245421245421
1650361124878.471,370.0189753320683,1438.095238095238
1650361124903.316,370.62177572631003,1457.8754578754579
1650361124904.561,370.62177572631003,1477.6556776556777
1650361124908.3381,370.62177572631003,1497.4358974358972
1650361124910.792,371.0247349823321,1519.4139194139193
1650361124910.934,370.82314588427056,1538.4615384615383
1650361124912.072,371.22654337775356,1556.7765567765566
1650361124940.765,371.22654337775356,1573.6263736263736
1650361124940.9338,371.0247349823321,1586.080586080586
1650361124942.2341,371.6308194936019,1595.6043956043954
1650361124967.219,371.4285714285714,1600.7326007326005
1650361124968.311,371.83328793244345,1602.9304029304028
1650361124968.4802,371.83328793244345,1602.197802197802
1650361124970.9302,371.83328793244345,1597.069597069597
1650361124972.03,372.44201909959077,1589.0109890109889
1650361125000.8372,372.03597710547837,1579.4871794871794
1650361125001.051,372.2388873738751,1567.7655677655678
1650361125002.0808,372.6453726453727,1554.5787545787546
1650361125027.11,372.44201909959077,1541.3919413919414
1650361125028.3599,373.0527466520908,1530.4029304029302
1650361125030.7778,372.84894837476105,1518.6813186813185
1650361125030.95,372.84894837476105,1507.6923076923076
1650361125058.385,373.2567678424939,1497.4358974358972
1650361125060.7222,373.0527466520908,1488.6446886446886
1650361125060.9119,373.2567678424939,1482.7838827838827
1650361125062.0562,373.4610123119015,1474.7252747252746
1650361125087.118,373.4610123119015,1470.3296703296703
1650361125088.237,374.0750890654974,1465.201465201465
1650361125088.718,373.4610123119015,1458.6080586080584
1650361125113.407,373.8701725554643,1452.014652014652
1650361125114.702,374.0750890654974,1447.6190476190475
1650361125139.505,374.0750890654974,1445.4212454212454
1650361125139.741,374.48559670781896,1443.956043956044
1650361125140.811,374.0750890654974,1443.956043956044
1650361125147.125,374.48559670781896,1444.6886446886447
1650361125148.336,374.8970063169459,1445.4212454212454
1650361125150.82,374.2802303262956,1446.8864468864467
1650361125150.978,374.8970063169459,1449.8168498168498
1650361125178.48,374.69118858084,1455.6776556776556
1650361125203.4048,375.1030502885408,1461.5384615384614
1650361125203.6692,375.1030502885408,1468.8644688644688
1650361125204.528,375.1030502885408,1473.260073260073
1650361125207.129,375.1030502885408,1474.7252747252746
1650361125208.479,375.515818431912,1472.5274725274724
1650361125212.024,375.515818431912,1471.062271062271
1650361125212.1438,375.7225433526012,1468.8644688644688
1650361125240.785,375.515818431912,1468.131868131868
1650361125242.134,376.1366767704602,1464.4688644688645
1650361125242.35,375.9294960066098,1459.3406593406592
1650361125265.976,375.9294960066098,1453.4798534798533
1650361125267.116,376.1366767704602,1449.8168498168498
1650361125268.361,376.3440860215054,1443.956043956044
1650361125293.35,376.3440860215054,1437.3626373626373
1650361125293.555,376.3440860215054,1430.7692307692307
1650361125323.421,376.55172413793105,1424.1758241758241
1650361125324.437,377.17601547388784,1418.3150183150183
1650361125324.6191,376.75959149875797,1415.3846153846152
1650361125325.815,376.96768848384426,1414.6520146520145
1650361125327.087,377.17601547388784,1413.1868131868132
1650361125328.1902,377.17601547388784,1410.2564102564102
1650361125328.4,377.3845728504285,1407.3260073260071
1650361125353.409,377.3845728504285,1402.197802197802
1650361125354.5688,377.5933609958506,1396.3369963369962
1650361125379.568,377.5933609958506,1391.9413919413919
1650361125379.7358,377.5933609958506,1388.278388278388
1650361125380.791,378.0116311271116,1385.3479853479853
1650361125387.2139,378.2211138819618,1383.8827838827838
1650361125388.1409,378.0116311271116,1385.3479853479853
1650361125388.269,378.2211138819618,1386.8131868131868
1650361125413.513,378.0116311271116,1387.5457875457876
1650361125414.6719,378.6407766990291,1390.4761904761904
1650361125439.469,378.6407766990291,1396.3369963369962
1650361125439.7148,378.6407766990291,1404.3956043956043
1650361125440.726,378.8509575353872,1410.989010989011
1650361125448.395,378.6407766990291,1416.8498168498168
1650361125450.877,379.2720200055571,1421.9780219780218
1650361125475.926,379.0613718411552,1424.9084249084249
1650361125476.1208,379.0613718411552,1426.3736263736262
1650361125477.036,379.69401947148816,1424.9084249084249
1650361125503.635,379.2720200055571,1422.7106227106226
1650361125503.9949,379.4829024186822,1419.7802197802198
1650361125504.4849,379.90537155580296,1418.3150183150183
1650361125529.686,379.69401947148816,1418.3150183150183
1650361125530.928,380.3287823906381,1419.047619047619
1650361125555.765,379.90537155580296,1420.5128205128203
1650361125555.9558,380.1169590643275,1419.047619047619
1650361125557.036,380.54084192918873,1417.5824175824175
1650361125567.137,380.1169590643275,1416.8498168498168
1650361125567.366,380.54084192918873,1414.6520146520145
1650361125568.295,380.54084192918873,1410.989010989011
1650361125570.816,380.54084192918873,1407.3260073260071
1650361125600.9,381.1784417760402,1405.8608058608058
1650361125601.1401,380.7531380753138,1406.5934065934066
1650361125602.24,381.1784417760402,1406.5934065934066
1650361125623.473,381.1784417760402,1407.3260073260071
1650361125624.5479,381.1784417760402,1409.5238095238094
1650361125624.726,381.60469667318984,1409.5238095238094
1650361125625.844,381.1784417760402,1412.4542124542124
1650361125627.176,381.8181818181818,1412.4542124542124
1650361125653.148,381.39145012573346,1413.1868131868132
1650361125654.3591,381.60469667318984,1412.4542124542124
1650361125654.478,382.031905961377,1411.7216117216117
1650361125679.514,381.8181818181818,1410.2564102564102
1650361125680.688,382.24586950434053,1413.1868131868132
1650361125680.827,382.24586950434053,1419.7802197802198
1650361125685.889,382.24586950434053,1434.4322344322343
1650361125693.2932,382.6745164003364,1457.142857142857
1650361125718.2058,382.031905961377,1487.179487179487
1650361125718.3909,382.46007284953765,1520.14652014652
1650361125743.678,382.88920056100983,1556.0439560439559
1650361125744.604,382.88920056100983,1591.9413919413919
1650361125745.865,383.31929233361416,1627.8388278388277
1650361125746.073,383.1041257367387,1660.07326007326
1650361125747.101,383.31929233361416,1687.179487179487
1650361125773.275,383.75035141973575,1710.6227106227104
1650361125774.366,383.31929233361416,1728.937728937729
1650361125774.476,383.75035141973575,1742.124542124542
1650361125799.498,383.75035141973575,1746.5201465201465
1650361125800.7122,383.75035141973575,1745.054945054945
1650361125825.814,384.1823810864058,1736.9963369963368
1650361125826.005,383.96624472573836,1726.007326007326
1650361125827.076,384.1823810864058,1707.6923076923076
1650361125851.9749,384.39876091241905,1687.179487179487
1650361125853.356,384.1823810864058,1665.201465201465
1650361125868.246,384.8322526078376,1641.7582417582416
1650361125868.523,384.39876091241905,1619.047619047619
1650361125870.707,384.6153846153846,1597.8021978021977
1650361125871.886,384.8322526078376,1577.2893772893772
1650361125872.102,384.6153846153846,1558.2417582417581
1650361125900.832,385.2667231160034,1539.194139194139
1650361125902.069,385.049365303244,1523.0769230769229
1650361125926.9668,385.2667231160034,1509.89010989011
1650361125927.147,385.48432646145153,1497.4358974358972
1650361125928.312,385.049365303244,1484.9816849816848
1650361125930.9001,385.7021757558632,1476.1904761904761
1650361125931.8882,385.7021757558632,1469.5970695970695
1650361125931.979,385.7021757558632,1463.003663003663
1650361125933.338,385.9202714164546,1460.8058608058607
1650361125958.3289,385.48432646145153,1461.5384615384614
1650361125983.153,386.35720350976504,1462.2710622710622
1650361125983.341,386.13861386138615,1464.4688644688645
1650361125984.478,385.9202714164546,1465.9340659340658
1650361125986.959,386.57604078164826,1471.062271062271
1650361125988.12,386.35720350976504,1478.3882783882782
1650361125988.2458,386.57604078164826,1487.9120879120878
1650361126013.4512,386.79512609804476,1497.4358974358972
1650361126014.7021,386.79512609804476,1505.4945054945053
1650361126039.594,387.23404255319144,1509.89010989011
1650361126040.668,386.79512609804476,1512.8205128205127
1650361126040.81,387.0144598809186,1512.8205128205127
1650361126050.771,387.23404255319144,1512.087912087912
1650361126051.9868,387.23404255319144,1509.1575091575091
1650361126052.234,387.45387453874537,1505.4945054945053
1650361126080.771,387.23404255319144,1499.6336996336995
1650361126082.029,387.45387453874537,1494.5054945054944
1650361126106.869,387.8942881500426,1489.3772893772893
1650361126108.1072,387.45387453874537,1483.5164835164835
1650361126108.251,387.8942881500426,1476.1904761904761
1650361126110.723,388.1148706283764,1469.5970695970695
1650361126111.847,387.8942881500426,1461.5384615384614
1650361126111.9968,388.33570412517776,1452.014652014652
1650361126140.9111,387.8942881500426,1442.4908424908424
1650361126142.087,388.5567890691716,1432.2344322344322
1650361126172.015,388.5567890691716,1424.1758241758241
1650361126173.131,388.1148706283764,1419.047619047619
1650361126173.33,388.7781258900598,1413.9194139194137
1650361126198.2231,388.5567890691716,1413.1868131868132
1650361126198.462,388.9997150185238,1410.2564102564102
1650361126198.564,388.9997150185238,1407.3260073260071
1650361126223.376,388.7781258900598,1403.6630036630036
1650361126224.5269,389.66600057093916,1400.0
1650361126225.7869,389.2215568862275,1396.3369963369962
1650361126226.021,389.2215568862275,1394.8717948717947
1650361126227.187,389.44365192582023,1394.139194139194
1650361126228.366,389.2215568862275,1395.6043956043954
1650361126253.144,389.8886032562125,1397.069597069597
1650361126253.385,389.66600057093916,1400.7326007326005
1650361126254.484,389.66600057093916,1401.4652014652013
1650361126285.758,390.1114604172621,1402.9304029304028
1650361126286.97,389.8886032562125,1403.6630036630036
1650361126288.117,390.1114604172621,1403.6630036630036
1650361126288.26,390.33457249070636,1404.3956043956043
1650361126293.274,390.33457249070636,1402.9304029304028
1650361126318.305,390.5579399141631,1402.197802197802
1650361126318.52,390.33457249070636,1402.197802197802
1650361126343.27,390.5579399141631,1402.197802197802
1650361126344.48,390.78156312625254,1402.197802197802
1650361126345.684,390.5579399141631,1402.9304029304028
1650361126345.819,390.78156312625254,1404.3956043956043
1650361126346.962,390.78156312625254,1403.6630036630036
1650361126348.2349,391.00544256659987,1405.128205128205
1650361126373.1438,391.22957867583835,1407.3260073260071
1650361126373.361,391.00544256659987,1409.5238095238094
1650361126374.5352,391.67862266857964,1410.2564102564102
1650361126403.718,391.22957867583835,1410.989010989011
1650361126404.387,391.4539718956123,1410.989010989011
1650361126404.5652,391.67862266857964,1411.7216117216117
1650361126413.295,391.4539718956123,1410.2564102564102
1650361126438.283,391.9035314384152,1410.2564102564102
1650361126460.788,391.4539718956123,1411.7216117216117
1650361126460.9539,391.67862266857964,1413.1868131868132
1650361126463.349,392.1286986498133,1414.6520146520145
1650361126464.488,391.9035314384152,1413.9194139194137
1650361126465.6528,392.35412474849096,1413.9194139194137
1650361126466.845,392.1286986498133,1414.6520146520145
1650361126466.9868,392.35412474849096,1414.6520146520145
1650361126495.893,392.5798101811907,1413.1868131868132
1650361126496.991,392.35412474849096,1410.989010989011
1650361126497.242,392.35412474849096,1408.7912087912086
1650361126523.256,392.8057553956835,1407.3260073260071
1650361126524.484,392.5798101811907,1406.5934065934066
1650361126528.116,393.0319608407717,1406.5934065934066
1650361126528.2668,392.5798101811907,1407.3260073260071
1650361126530.721,393.0319608407717,1408.7912087912086
1650361126556.095,393.2584269662922,1410.989010989011
1650361126557.972,393.0319608407717,1416.117216117216
1650361126558.223,393.4851542231191,1425.6410256410256
1650361126583.267,393.2584269662922,1441.0256410256409
1650361126584.485,393.4851542231191,1463.7362637362637
1650361126592.0488,393.4851542231191,1493.040293040293
1650361126593.183,393.2584269662922,1526.7399267399267
1650361126593.444,393.93939393939394,1564.102564102564
1650361126618.281,393.4851542231191,1602.9304029304028
1650361126643.196,393.4851542231191,1638.095238095238
1650361126643.424,394.1669073058042,1668.8644688644688
1650361126644.5989,393.93939393939394,1693.7728937728937
1650361126650.758,394.3946836174516,1715.018315018315
1650361126651.958,394.3946836174516,1728.2051282051282
1650361126653.075,394.1669073058042,1735.5311355311353
1650361126653.1328,394.62272333044234,1734.7985347985348
1650361126680.8071,394.3946836174516,1728.2051282051282
1650361126682.03,394.8510269019381,1715.7509157509157
1650361126682.325,394.8510269019381,1697.4358974358972
1650361126705.755,394.8510269019381,1673.260073260073
1650361126707.043,395.0795947901592,1647.6190476190475
1650361126708.257,394.8510269019381,1621.245421245421
1650361126711.906,395.0795947901592,1594.8717948717947
1650361126712.031,395.5375253549696,1567.032967032967
1650361126740.766,395.3084274543875,1543.5897435897434
1650361126741.918,395.99651871192344,1520.14652014652
1650361126742.0981,395.3084274543875,1498.9010989010987
1650361126763.4312,395.76688895331984,1478.3882783882782
1650361126764.535,395.76688895331984,1464.4688644688645
1650361126765.862,395.5375253549696,1451.2820512820513
1650361126793.176,396.22641509433964,1444.6886446886447
1650361126793.3582,395.76688895331984,1438.095238095238
1650361126794.501,396.22641509433964,1432.9670329670328
1650361126819.754,396.4565785652048,1429.3040293040292
1650361126819.949,395.99651871192344,1427.8388278388277
1650361126820.7322,396.4565785652048,1426.3736263736262
1650361126828.372,396.4565785652048,1427.8388278388277
1650361126830.958,396.4565785652048,1430.03663003663
1650361126858.347,396.6870095902354,1434.4322344322343
1650361126858.5452,396.22641509433964,1439.5604395604394
1650361126883.261,396.91770863623145,1445.4212454212454
1650361126884.365,396.91770863623145,1451.2820512820513
1650361126884.474,396.6870095902354,1456.4102564102564
1650361126890.7559,397.14867617107944,1462.2710622710622
1650361126891.9932,396.91770863623145,1468.8644688644688
1650361126893.459,397.3799126637555,1474.7252747252746
1650361126918.17,397.14867617107944,1482.051282051282
1650361126918.3608,396.91770863623145,1487.179487179487
1650361126943.364,397.14867617107944,1490.8424908424906
1650361126944.409,396.91770863623145,1494.5054945054944
1650361126944.5469,396.91770863623145,1495.2380952380952
1650361126947.13,397.14867617107944,1491.5750915750914
1650361126973.284,396.91770863623145,1486.4468864468863
1650361126974.364,397.6114185843286,1479.8534798534797
1650361126974.479,397.14867617107944,1475.4578754578754
1650361126999.543,397.3799126637555,1468.131868131868
1650361127000.774,397.8431944039639,1459.3406593406592
1650361127005.7112,397.3799126637555,1450.5494505494505
1650361127005.891,397.6114185843286,1441.7582417582416
1650361127006.999,397.8431944039639,1433.6996336996335
1650361127008.251,397.8431944039639,1426.3736263736262
1650361127033.4011,398.0752405949256,1420.5128205128203
1650361127033.68,397.6114185843286,1414.6520146520145
1650361127034.658,398.3075576305807,1408.058608058608
1650361127059.5168,398.3075576305807,1404.3956043956043
1650361127060.6848,398.0752405949256,1400.7326007326005
1650361127060.8462,398.3075576305807,1397.069597069597
1650361127072.011,398.0752405949256,1394.139194139194
1650361127073.4229,398.54014598540147,1390.4761904761904
1650361127100.7422,398.3075576305807,1389.0109890109889
1650361127127.064,398.3075576305807,1389.0109890109889
1650361127127.338,398.7730061349693,1389.0109890109889
1650361127128.4138,398.54014598540147,1389.0109890109889
1650361127130.826,398.7730061349693,1388.278388278388
1650361127131.021,399.00613855597777,1388.278388278388
1650361127132.041,398.7730061349693,1389.0109890109889
1650361127133.389,399.23954372623575,1389.0109890109889
1650361127158.182,399.23954372623575,1390.4761904761904
1650361127158.3582,399.00613855597777,1391.2087912087911
1650361127183.684,399.47322212467077,1394.139194139194
1650361127184.619,399.23954372623575,1398.5347985347985
1650361127186.919,399.7071742313324,1403.6630036630036
1650361127187.093,399.47322212467077,1406.5934065934066
1650361127188.2651,399.47322212467077,1408.7912087912086
1650361127213.272,399.9414005273953,1410.2564102564102
1650361127214.3718,399.7071742313324,1412.4542124542124
1650361127214.53,399.9414005273953,1415.3846153846152
1650361127239.678,399.9414005273953,1413.9194139194137
1650361127240.8582,399.9414005273953,1414.6520146520145
1650361127253.198,400.4106776180698,1413.1868131868132
1650361127253.382,399.9414005273953,1413.1868131868132
1650361127278.496,400.4106776180698,1413.1868131868132
1650361127303.282,400.4106776180698,1413.9194139194137
1650361127304.3672,400.1759014951627,1411.7216117216117
1650361127308.141,400.6457293806868,1409.5238095238094
1650361127308.3,400.4106776180698,1406.5934065934066
1650361127310.738,400.6457293806868,1404.3956043956043
1650361127311.859,400.8810572687225,1403.6630036630036
1650361127311.993,400.4106776180698,1404.3956043956043
1650361127339.634,400.8810572687225,1405.128205128205
1650361127340.863,400.6457293806868,1405.8608058608058
1650361127358.1418,400.8810572687225,1405.8608058608058
1650361127358.32,401.1166617690273,1404.3956043956043
1650361127359.473,400.8810572687225,1403.6630036630036
1650361127360.737,401.58870255957635,1403.6630036630036
1650361127363.122,401.3525433695972,1404.3956043956043
1650361127363.2869,401.1166617690273,1404.3956043956043
1650361127373.314,401.58870255957635,1404.3956043956043
1650361127400.783,401.3525433695972,1403.6630036630036
1650361127401.987,401.58870255957635,1402.197802197802
1650361127418.135,401.8251398292611,1400.0
1650361127418.316,401.58870255957635,1399.2673992673992
1650361127419.4739,402.06185567010306,1400.0
1650361127420.7002,401.58870255957635,1402.9304029304028
1650361127420.814,402.06185567010306,1409.5238095238094
1650361127445.944,402.2988505747126,1420.5128205128203
1650361127447.106,402.06185567010306,1438.095238095238
1650361127471.9019,402.7736795514901,1465.9340659340658
1650361127473.145,402.2988505747126,1500.3663003663003
1650361127473.501,402.5361250368623,1539.194139194139
1650361127487.251,402.7736795514901,1578.7545787545787
1650361127488.201,402.5361250368623,1616.117216117216
1650361127488.363,402.5361250368623,1651.2820512820513
1650361127513.268,402.7736795514901,1681.3186813186812
1650361127514.493,402.5361250368623,1705.4945054945053
1650361127540.862,403.24963072378137,1722.3443223443223
1650361127543.3171,402.7736795514901,1730.4029304029302
1650361127543.486,403.24963072378137,1728.2051282051282
1650361127544.637,403.24963072378137,1720.14652014652
1650361127545.8528,403.24963072378137,1706.9597069597069
1650361127546.032,403.48802837718,1687.179487179487
1650361127573.539,403.24963072378137,1663.003663003663
1650361127574.677,403.72670807453414,1636.6300366300366
1650361127599.4102,403.9656703166617,1607.3260073260071
1650361127599.596,403.48802837718,1580.2197802197802
1650361127600.74,403.72670807453414,1550.9157509157508
1650361127606.987,403.72670807453414,1523.8095238095236
1650361127608.1272,404.20491560556707,1499.6336996336995
1650361127608.286,403.9656703166617,1481.3186813186812
1650361127633.467,403.9656703166617,1464.4688644688645
1650361127634.624,404.6842573376816,1452.014652014652
1650361127663.1528,404.20491560556707,1442.4908424908424
1650361127664.358,404.4444444444444,1432.9670329670328
1650361127664.508,404.4444444444444,1426.3736263736262
1650361127673.3,404.6842573376816,1421.9780219780218
1650361127706.914,405.1647373107747,1419.7802197802198
1650361127707.084,404.4444444444444,1418.3150183150183
1650361127708.232,404.9243547908632,1417.5824175824175
1650361127719.4778,405.1647373107747,1419.7802197802198
1650361127720.742,404.9243547908632,1421.9780219780218
1650361127723.124,405.1647373107747,1424.9084249084249
1650361127723.211,405.1647373107747,1429.3040293040292
1650361127724.457,404.9243547908632,1434.4322344322343
1650361127758.1738,405.40540540540536,1439.5604395604394
1650361127758.354,404.9243547908632,1447.6190476190475
1650361127778.427,405.6463595839524,1455.6776556776556
1650361127779.685,405.6463595839524,1463.7362637362637
1650361127780.78,405.40540540540536,1469.5970695970695
1650361127780.9392,405.88760035682424,1473.9926739926739
1650361127783.52,405.40540540540536,1476.923076923077
1650361127784.584,405.88760035682424,1478.3882783882782
1650361127823.272,405.6463595839524,1481.3186813186812
1650361127823.621,405.6463595839524,1480.5860805860805
1650361127824.501,406.3709437332539,1478.3882783882782
1650361127825.752,405.88760035682424,1476.1904761904761
1650361127844.747,406.12912823564415,1474.7252747252746
1650361127845.7651,406.12912823564415,1471.7948717948716
1650361127845.994,406.12912823564415,1466.6666666666665
1650361127873.3572,406.8554396423249,1460.8058608058607
1650361127874.392,406.3709437332539,1452.7472527472526
1650361127874.55,406.3709437332539,1444.6886446886447
1650361127898.2861,406.61304736371756,1438.8278388278388
1650361127899.471,406.61304736371756,1430.7692307692307
1650361127900.686,406.8554396423249,1424.9084249084249
1650361127900.854,406.8554396423249,1419.7802197802198
1650361127903.221,407.098121085595,1416.117216117216
1650361127913.2659,407.098121085595,1412.4542124542124
1650361127939.385,407.098121085595,1409.5238095238094
1650361127939.6501,407.34109221128017,1405.8608058608058
1650361127963.268,407.34109221128017,1402.197802197802
1650361127964.48,407.34109221128017,1399.2673992673992
1650361127965.603,407.5843535383696,1398.5347985347985
1650361127966.865,406.8554396423249,1397.069597069597
1650361127967.01,407.5843535383696,1395.6043956043954
1650361127998.312,407.34109221128017,1394.139194139194
1650361128018.1328,406.8554396423249,1394.8717948717947
1650361128018.2878,407.098121085595,1394.8717948717947
1650361128019.465,407.098121085595,1395.6043956043954
1650361128020.724,407.34109221128017,1397.8021978021977
1650361128023.208,407.34109221128017,1400.7326007326005
1650361128028.311,407.34109221128017,1402.197802197802
1650361128028.493,407.8279055870929,1404.3956043956043
1650361128065.785,407.34109221128017,1405.8608058608058
1650361128078.294,407.5843535383696,1408.058608058608
1650361128078.5452,407.8279055870929,1411.7216117216117
1650361128079.596,407.8279055870929,1413.9194139194137
1650361128080.847,408.3158839365839,1414.6520146520145
1650361128083.3508,407.8279055870929,1413.9194139194137
1650361128090.892,407.8279055870929,1412.4542124542124
1650361128091.155,408.56031128404663,1410.989010989011
1650361128143.48,408.07174887892376,1408.7912087912086
1650361128144.499,408.56031128404663,1407.3260073260071
1650361128144.697,408.3158839365839,1406.5934065934066
1650361128145.896,408.3158839365839,1406.5934065934066
1650361128147.043,408.80503144654085,1405.8608058608058
1650361128148.113,408.3158839365839,1405.8608058608058
1650361128150.6099,408.56031128404663,1404.3956043956043
1650361128150.8,408.80503144654085,1400.7326007326005
1650361128186.019,408.3158839365839,1399.2673992673992
1650361128196.91,409.05004495055437,1394.8717948717947
1650361128197.0889,408.56031128404663,1393.4065934065934
1650361128198.253,409.05004495055437,1392.6739926739926
1650361128199.454,409.05004495055437,1393.4065934065934
1650361128200.688,408.56031128404663,1394.139194139194
1650361128225.925,409.2953523238381,1394.8717948717947
1650361128226.133,409.05004495055437,1397.8021978021977
1650361128227.093,409.05004495055437,1400.7326007326005
1650361128256.896,409.05004495055437,1402.197802197802
1650361128257.015,408.56031128404663,1403.6630036630036
1650361128258.269,409.05004495055437,1404.3956043956043
1650361128266.977,409.05004495055437,1402.197802197802
1650361128268.117,409.05004495055437,1397.8021978021977
1650361128293.247,409.05004495055437,1395.6043956043954
1650361128293.618,409.05004495055437,1393.4065934065934
1650361128294.5918,409.2953523238381,1398.5347985347985
1650361128316.905,409.2953523238381,1407.3260073260071
1650361128317.0828,409.05004495055437,1424.1758241758241
1650361128318.205,409.5409540954095,1448.3516483516482
1650361128319.53,409.2953523238381,1477.6556776556777
1650361128347.121,409.5409540954095,1513.5531135531135
1650361128347.402,409.2953523238381,1553.8461538461538
1650361128348.243,409.2953523238381,1594.8717948717947
1650361128349.4949,409.78685079555686,1635.8974358974358
1650361128375.815,409.05004495055437,1673.260073260073
1650361128375.982,409.2953523238381,1707.6923076923076
1650361128393.333,409.5409540954095,1735.5311355311353
1650361128393.535,409.5409540954095,1756.0439560439559
1650361128419.404,410.0330429558426,1767.032967032967
1650361128419.553,409.2953523238381,1772.8937728937728
1650361128420.722,409.5409540954095,1768.4981684981683
1650361128438.416,409.5409540954095,1756.0439560439559
1650361128438.617,409.5409540954095,1737.7289377289376
1650361128439.5872,409.78685079555686,1715.018315018315
1650361128440.8628,409.2953523238381,1687.9120879120878
1650361128443.441,409.2953523238381,1659.3406593406592
1650361128453.2012,409.5409540954095,1628.5714285714284
1650361128453.399,409.05004495055437,1599.2673992673992
1650361128479.633,409.5409540954095,1569.230769230769
1650361128480.816,409.05004495055437,1542.1245421245421
1650361128503.169,409.05004495055437,1517.9487179487178
1650361128503.37,409.05004495055437,1497.4358974358972
1650361128504.476,408.56031128404663,1479.8534798534797
1650361128505.7112,409.05004495055437,1463.7362637362637
1650361128533.174,408.80503144654085,1450.5494505494505
1650361128533.373,408.3158839365839,1440.2930402930401
1650361128534.491,408.56031128404663,1430.03663003663
1650361128559.651,408.07174887892376,1422.7106227106226
1650361128560.824,408.3158839365839,1418.3150183150183
1650361128561.334,408.07174887892376,1415.3846153846152
1650361128563.313,407.5843535383696,1415.3846153846152
1650361128568.804,407.8279055870929,1416.8498168498168
1650361128593.3599,406.8554396423249,1424.1758241758241
1650361128593.563,407.098121085595,1430.03663003663
1650361128594.703,407.098121085595,1436.6300366300366
1650361128618.293,406.61304736371756,1443.2234432234432
1650361128619.446,406.61304736371756,1450.5494505494505
1650361128619.688,406.12912823564415,1456.4102564102564
1650361128620.744,405.88760035682424,1463.003663003663
1650361128630.7212,405.88760035682424,1471.062271062271
1650361128660.77,405.1647373107747,1479.120879120879
1650361128660.968,405.1647373107747,1487.179487179487
1650361128661.9958,404.9243547908632,1493.7728937728937
1650361128687.2202,404.4444444444444,1496.7032967032967
1650361128688.3162,404.4444444444444,1498.168498168498
1650361128688.551,403.48802837718,1496.7032967032967
1650361128690.93,403.72670807453414,1493.040293040293
1650361128692.0828,403.24963072378137,1487.9120879120878
1650361128720.658,402.7736795514901,1482.051282051282
1650361128721.855,402.5361250368623,1474.7252747252746
1650361128721.979,402.06185567010306,1463.7362637362637
1650361128743.48,402.06185567010306,1454.9450549450548
1650361128744.477,401.58870255957635,1446.8864468864467
1650361128744.6711,400.8810572687225,1438.8278388278388
1650361128746.595,400.8810572687225,1429.3040293040292
1650361128773.312,399.9414005273953,1421.245421245421
1650361128774.407,399.7071742313324,1413.9194139194137
1650361128774.577,399.47322212467077,1408.7912087912086
1650361128799.526,398.7730061349693,1405.128205128205
1650361128800.732,398.7730061349693,1401.4652014652013
1650361128811.872,398.0752405949256,1396.3369963369962
1650361128812.0,397.3799126637555,1391.9413919413919
1650361128839.7168,397.14867617107944,1386.080586080586
1650361128840.802,396.4565785652048,1382.4175824175823
1650361128860.874,396.6870095902354,1381.6849816849815
1650361128861.099,395.76688895331984,1383.150183150183
1650361128863.293,395.3084274543875,1383.8827838827838
1650361128864.4978,394.8510269019381,1385.3479853479853
1650361128865.592,393.93939393939394,1386.8131868131868
1650361128865.7378,393.93939393939394,1388.278388278388
1650361128870.7322,393.2584269662922,1387.5457875457876
1650361128900.775,392.35412474849096,1385.3479853479853
1650361128901.991,392.35412474849096,1384.6153846153845
1650361128918.125,391.22957867583835,1383.8827838827838
1650361128918.238,391.22957867583835,1384.6153846153845
1650361128919.477,390.5579399141631,1385.3479853479853
1650361128920.694,389.8886032562125,1386.8131868131868
1650361128920.8,389.66600057093916,1387.5457875457876
1650361128948.292,388.7781258900598,1388.278388278388
1650361128949.467,388.33570412517776,1387.5457875457876
1650361128950.687,388.1148706283764,1386.8131868131868
1650361128983.3838,387.0144598809186,1389.0109890109889
1650361128983.6472,387.0144598809186,1390.4761904761904
1650361128984.639,386.13861386138615,1390.4761904761904
1650361128985.7769,385.48432646145153,1389.7435897435896
1650361128986.135,385.049365303244,1388.278388278388
1650361129013.282,383.96624472573836,1386.8131868131868
1650361129014.481,383.75035141973575,1386.080586080586
1650361129040.8872,383.1041257367387,1384.6153846153845
1650361129041.084,382.24586950434053,1383.150183150183
1650361129047.087,382.031905961377,1380.2197802197802
1650361129050.831,381.1784417760402,1378.7545787545787
1650361129051.906,380.96567122523027,1375.091575091575
1650361129052.1082,380.1169590643275,1372.8937728937728
1650361129080.803,379.4829024186822,1370.6959706959706
1650361129082.14,379.0613718411552,1369.230769230769
1650361129103.152,378.2211138819618,1369.9633699633698
1650361129104.351,377.5933609958506,1369.230769230769
1650361129104.48,377.3845728504285,1368.4981684981683
1650361129105.714,376.55172413793105,1369.9633699633698
1650361129106.8572,376.3440860215054,1369.9633699633698
1650361129106.981,375.1030502885408,1369.230769230769
1650361129133.501,374.8970063169459,1369.230769230769
1650361129134.755,374.48559670781896,1372.161172161172
1650361129159.4219,373.6654804270463,1376.5567765567764
1650361129160.733,373.2567678424939,1380.2197802197802
1650361129160.9038,372.44201909959077,1380.2197802197802
1650361129166.989,372.03597710547837,1378.021978021978
1650361129168.124,371.4285714285714,1375.8241758241757
1650361129168.256,370.4206241519674,1375.8241758241757
1650361129198.293,370.4206241519674,1377.2893772893772
1650361129218.2478,369.81847737740446,1379.4871794871794
1650361129219.342,369.2182850960238,1383.8827838827838
1650361129220.681,368.8192380437719,1391.2087912087911
1650361129220.802,367.82538399353274,1405.8608058608058
1650361129223.26,367.6272555884729,1431.5018315018315
1650361129253.185,367.23163841807906,1464.4688644688645
1650361129253.361,366.4429530201342,1504.0293040293038
1650361129254.508,366.24631070566136,1547.2527472527472
1650361129279.573,365.4618473895582,1591.2087912087911
1650361129280.797,365.2662563553653,1632.9670329670328
1650361129288.2732,364.680737376436,1674.7252747252746
1650361129288.4841,364.09709255801545,1709.8901098901097
1650361129290.802,363.9029592108771,1738.4615384615383
1650361129327.013,362.74249269200106,1761.172161172161
1650361129327.12,362.74249269200106,1773.6263736263736
1650361129328.319,362.3573135120786,1775.8241758241757
1650361129337.107,361.7810760667904,1769.230769230769
1650361129339.4119,361.58940397350995,1754.5787545787546
1650361129339.615,360.82474226804123,1731.8681318681317
1650361129339.683,360.44362292051756,1702.5641025641025
1650361129350.79,360.25336500395883,1668.131868131868
1650361129380.813,359.494337634975,1633.6996336996335
1650361129381.081,359.30508028428534,1597.8021978021977
1650361129382.172,358.73850197109067,1563.3699633699632
1650361129403.261,358.17370768827084,1530.4029304029302
1650361129404.362,357.98583792289537,1501.098901098901
1650361129404.52,357.23632556922274,1474.7252747252746
1650361129405.724,357.04943761443894,1450.5494505494505
1650361129413.476,356.6762477136138,1430.03663003663
1650361129438.177,355.74667709147775,1415.3846153846152
1650361129438.353,355.5613441000261,1400.7326007326005
1650361129458.4128,355.19125683060105,1390.4761904761904
1650361129459.687,355.0065019505852,1382.4175824175823
1650361129460.905,354.6375681995323,1377.2893772893772
1650361129463.375,354.08560311284043,1374.3589743589744
1650361129463.774,354.08560311284043,1373.6263736263736
1650361129473.289,353.16946959896507,1375.091575091575
1650361129500.692,352.98681148176877,1376.5567765567764
1650361129500.898,352.8043422072887,1380.952380952381
1650361129502.0881,352.258064516129,1387.5457875457876
1650361129520.792,352.07634769151406,1394.8717948717947
1650361129523.108,351.5323203708473,1404.3956043956043
1650361129524.359,350.9899717150938,1416.8498168498168
1650361129524.518,350.9899717150938,1427.106227106227
1650361129549.684,350.26943802925325,1436.6300366300366
1650361129551.138,350.26943802925325,1445.4212454212454
1650361129551.419,349.5518565941101,1454.212454212454
1650361129579.5032,349.1941673062164,1461.5384615384614
1650361129580.73,349.1941673062164,1465.9340659340658
1650361129586.938,348.65900383141764,1466.6666666666665
1650361129587.303,348.4809803420985,1465.9340659340658
1650361129593.478,348.1254781943382,1464.4688644688645
1650361129630.773,347.77070063694265,1460.8058608058607
1650361129631.8801,347.9479989803722,1454.9450549450548
1650361129632.0168,347.23988806919357,1446.153846153846
1650361129640.945,347.23988806919357,1433.6996336996335
1650361129643.301,347.06331045003816,1420.5128205128203
1650361129644.367,346.53465346534654,1408.7912087912086
1650361129644.595,346.53465346534654,1397.8021978021977
1650361129673.248,346.1831093076338,1386.8131868131868
1650361129674.4548,346.00760456273764,1377.2893772893772
1650361129695.762,346.00760456273764,1369.9633699633698
1650361129695.927,345.3073614975968,1365.5677655677655
1650361129697.143,345.4821564160972,1361.904761904762
1650361129698.478,345.1327433628319,1358.2417582417581
1650361129699.457,344.78403637282145,1356.0439560439559
1650361129738.289,344.78403637282145,1353.8461538461538
1650361129738.521,343.74213044573156,1350.9157509157508
1650361129760.782,343.39622641509436,1350.18315018315
1650361129763.128,342.87867370007535,1349.4505494505493
1650361129763.282,342.3626787057938,1348.7179487179487
1650361129765.739,342.3626787057938,1347.985347985348
1650361129766.987,341.6770963704631,1347.2527472527472
1650361129768.141,341.8482344102179,1347.985347985348
1650361129793.247,341.3353338334584,1346.5201465201465
1650361129793.544,340.99425430926806,1345.054945054945
1650361129794.516,340.8239700374532,1344.3223443223442
1650361129819.458,340.4839111998005,1345.054945054945
1650361129819.626,340.31413612565444,1347.985347985348
1650361129820.7751,340.144530276601,1351.6483516483515
1650361129827.3188,339.8058252427184,1356.0439560439559
1650361129828.202,339.9750933997509,1358.974358974359
1650361129853.122,339.4677940810743,1362.6373626373625
1650361129853.25,339.29903057419835,1367.032967032967
1650361129854.5188,339.4677940810743,1367.032967032967
1650361129879.7869,338.96200645641915,1365.5677655677655
1650361129879.991,339.29903057419835,1361.904761904762
1650361129880.79,339.1304347826087,1359.7069597069597
1650361129888.268,338.96200645641915,1359.7069597069597
1650361129890.6592,338.96200645641915,1358.2417582417581
1650361129890.839,338.6256512031754,1357.5091575091574
1650361129919.638,338.96200645641915,1354.5787545787546
1650361129920.868,338.79374534623975,1351.6483516483515
1650361129939.4,338.79374534623975,1347.2527472527472
1650361129939.528,338.79374534623975,1342.8571428571427
1650361129940.727,338.4577237788247,1341.3919413919414
1650361129943.21,338.79374534623975,1339.9267399267399
1650361129970.805,338.79374534623975,1340.6593406593406
1650361129970.999,338.6256512031754,1339.9267399267399
1650361129973.511,338.79374534623975,1339.194139194139
1650361129974.6858,338.6256512031754,1338.4615384615383
1650361129999.424,338.79374534623975,1338.4615384615383
1650361129999.616,338.79374534623975,1339.9267399267399
1650361130000.761,338.79374534623975,1339.9267399267399
1650361130007.117,339.1304347826087,1341.3919413919414
1650361130046.926,338.96200645641915,1342.1245421245421
1650361130048.1392,338.96200645641915,1342.8571428571427
1650361130048.3,339.4677940810743,1344.3223443223442
1650361130055.759,339.4677940810743,1343.5897435897434
1650361130057.027,339.8058252427184,1344.3223443223442
1650361130073.23,339.8058252427184,1345.054945054945
1650361130073.574,339.8058252427184,1345.054945054945
1650361130098.279,340.31413612565444,1345.7875457875457
1650361130120.812,340.144530276601,1343.5897435897434
1650361130121.0388,340.31413612565444,1342.8571428571427
1650361130123.503,340.31413612565444,1339.9267399267399
1650361130125.652,340.4839111998005,1335.5311355311355
1650361130125.8901,340.6538557524333,1328.937728937729
1650361130126.007,340.4839111998005,1322.3443223443223
1650361130127.062,340.8239700374532,1314.2857142857142
1650361130133.302,340.99425430926806,1308.4249084249084
1650361130158.301,340.6538557524333,1308.4249084249084
1650361130158.494,341.16470882279435,1314.2857142857142
1650361130180.791,341.3353338334584,1331.8681318681317
1650361130183.23,341.5061295971979,1359.7069597069597
1650361130184.367,341.6770963704631,1394.8717948717947
1650361130184.505,341.6770963704631,1436.6300366300366
1650361130185.7048,342.0195439739414,1479.8534798534797
1650361130193.294,342.0195439739414,1522.3443223443223
1650361130218.3198,342.0195439739414,1564.102564102564
1650361130218.497,342.3626787057938,1600.0
1650361130243.268,342.3626787057938,1630.03663003663
1650361130244.512,342.7065026362039,1653.4798534798533
1650361130245.615,342.7065026362039,1667.3992673992673
1650361130245.753,342.87867370007535,1673.260073260073
1650361130246.9832,343.05101784367935,1669.5970695970695
1650361130273.4302,343.05101784367935,1657.8754578754579
1650361130274.47,343.05101784367935,1639.5604395604394
1650361130274.6921,343.39622641509436,1614.6520146520145
1650361130299.5278,343.39622641509436,1586.8131868131868
1650361130300.759,343.5690913667254,1555.311355311355
1650361130303.0989,343.5690913667254,1522.3443223443223
1650361130303.204,343.5690913667254,1490.8424908424906
1650361130304.442,343.91534391534395,1460.07326007326
1650361130332.0378,343.91534391534395,1432.2344322344322
1650361130333.103,344.26229508196724,1407.3260073260071
1650361130355.617,344.4360333080999,1385.3479853479853
1650361130355.7588,344.4360333080999,1367.032967032967
1650361130357.042,344.95830174374527,1353.113553113553
1650361130358.161,344.95830174374527,1342.1245421245421
1650361130358.274,345.3073614975968,1334.065934065934
1650361130374.274,345.4821564160972,1328.2051282051282
1650361130400.772,345.65712838693344,1323.8095238095236
1650361130401.874,346.00760456273764,1323.076923076923
1650361130423.29,346.1831093076338,1324.5421245421244
1650361130423.574,346.8869123252859,1328.937728937729
1650361130424.5952,347.06331045003816,1334.065934065934
1650361130454.415,347.41664545685927,1338.4615384615383
1650361130454.583,347.77070063694265,1345.054945054945
1650361130455.7139,347.9479989803722,1351.6483516483515
1650361130479.7139,348.303138555754,1358.974358974359
1650361130480.6719,348.83720930232556,1366.3003663003662
1650361130480.853,348.83720930232556,1375.8241758241757
1650361130483.187,349.5518565941101,1386.080586080586
1650361130484.462,349.73097617217525,1394.8717948717947
1650361130485.584,350.26943802925325,1400.0
1650361130485.7039,350.9899717150938,1403.6630036630036
1650361130519.734,351.5323203708473,1405.128205128205
1650361130521.7432,352.258064516129,1406.5934065934066
1650361130539.551,353.3523168521874,1408.7912087912086
1650361130540.7168,354.45338873019995,1408.7912087912086
1650361130540.875,355.74667709147775,1406.5934065934066
1650361130543.252,356.8627450980392,1400.7326007326005
1650361130544.39,358.73850197109067,1395.6043956043954
1650361130544.5708,360.6340819022457,1390.4761904761904
1650361130579.5269,363.51531291611184,1383.8827838827838
1650361130580.728,366.24631070566136,1379.4871794871794
1650361130595.621,369.0186536901865,1374.3589743589744
1650361130596.8872,371.6308194936019,1369.230769230769
1650361130597.059,374.2802303262956,1361.904761904762
1650361130598.417,376.55172413793105,1353.8461538461538
1650361130608.253,379.0613718411552,1346.5201465201465
1650361130608.5479,380.96567122523027,1341.3919413919414
1650361130633.3909,383.31929233361416,1334.065934065934
1650361130634.521,385.48432646145153,1326.7399267399267
1650361130659.451,387.23404255319144,1319.4139194139193
1650361130660.752,390.1114604172621,1310.6227106227104
1650361130660.888,393.2584269662922,1299.6336996336995
1650361130667.021,396.6870095902354,1287.179487179487
1650361130668.1162,400.1759014951627,1275.4578754578754
1650361130668.245,403.24963072378137,1269.5970695970695
1650361130695.782,406.61304736371756,1264.4688644688645
1650361130696.9858,405.6463595839524,1260.8058608058607
1650361130718.2332,404.4444444444444,1257.8754578754579
1650361130719.384,404.6842573376816,1254.9450549450548
1650361130719.5,405.88760035682424,1257.142857142857
1650361130720.725,407.34109221128017,1263.003663003663
1650361130745.669,408.56031128404663,1273.260073260073
1650361130745.853,410.2795311091073,1284.9816849816848
1650361130746.9849,411.51643050949656,1297.4358974358975
1650361130778.439,411.764705882353,1308.4249084249084
1650361130779.43,411.26845435372104,1316.4835164835165
1650361130779.633,411.02077687443546,1323.8095238095236
1650361130784.528,411.26845435372104,1328.937728937729
1650361130785.712,412.0132810141866,1330.4029304029302
1650361130811.176,412.0132810141866,1330.4029304029302
1650361130811.346,410.2795311091073,1326.7399267399267
1650361130835.8171,408.3158839365839,1323.8095238095236
1650361130837.012,409.2953523238381,1320.8791208791208
1650361130845.701,411.26845435372104,1318.6813186813185
1650361130845.9111,413.76174598363144,1315.018315018315
1650361130847.043,415.77825159914715,1311.3553113553112
1650361130848.265,417.3035768878019,1309.89010989011
1650361130880.804,418.8401350107395,1307.6923076923076
1650361130881.0151,419.61266523209343,1306.9597069597069
1650361130882.137,420.38805050816137,1304.7619047619046
1650361130895.7642,421.16630669546436,1300.3663003663003
1650361130896.8489,421.6867469879518,1298.168498168498
1650361130896.966,421.6867469879518,1299.6336996336995
1650361130898.218,422.99349240780913,1303.2967032967033
1650361130913.447,422.73149581913907,1307.6923076923076
1650361130941.915,423.51846106112316,1312.087912087912
1650361130942.092,424.30836182778984,1316.4835164835165
1650361130943.2349,424.5723172628305,1319.4139194139193
1650361130964.604,425.3661576815207,1323.076923076923
1650361130965.8662,425.6314312441534,1324.5421245421244
1650361130966.062,425.3661576815207,1326.007326007326
1650361130967.0588,426.1629722135498,1326.7399267399267
1650361131007.164,425.8970358814352,1326.007326007326
1650361131008.1848,425.6314312441534,1326.7399267399267
1650361131008.32,425.8970358814352,1326.007326007326
1650361131018.522,426.1629722135498,1326.7399267399267
1650361131019.6199,426.69584245076584,1331.135531135531
1650361131020.7131,426.69584245076584,1336.9963369963368
1650361131024.508,426.96277760400375,1342.1245421245421
1650361131024.693,426.96277760400375,1345.054945054945
1650361131053.273,426.96277760400375,1346.5201465201465
1650361131054.376,427.49765111180704,1347.985347985348
1650361131054.507,427.2300469483568,1347.985347985348
1650361131078.439,428.30247882020706,1349.4505494505493
1650361131079.63,429.110342659541,1350.18315018315
1650361131080.7231,429.92125984251965,1356.0439560439559
1650361131090.594,430.19224708477776,1365.5677655677655
1650361131090.721,429.92125984251965,1378.021978021978
1650361131117.126,429.110342659541,1394.139194139194
1650361131118.387,428.0338664158043,1409.5238095238094
1650361131118.612,426.1629722135498,1424.1758241758241
1650361131139.54,424.83660130718954,1437.3626373626373
1650361131140.737,423.25581395348837,1452.014652014652
1650361131143.0981,421.6867469879518,1466.6666666666665
1650361131153.1118,420.38805050816137,1482.7838827838827
1650361131153.24,419.09732883021184,1502.5641025641025
1650361131178.3481,417.81450872359966,1528.2051282051282
1650361131203.1729,416.793893129771,1558.2417582417581
1650361131203.346,415.27228475813814,1589.0109890109889
1650361131204.448,414.767547857794,1614.6520146520145
1650361131205.775,413.76174598363144,1635.8974358974358
1650361131206.974,413.0105900151286,1653.4798534798533
1650361131239.4968,412.76081040217724,1665.9340659340658
1650361131239.688,412.0132810141866,1671.0622710622708
1650361131240.7378,411.764705882353,1668.8644688644688
1650361131259.459,411.02077687443546,1657.142857142857
1650361131259.753,410.5263157894737,1639.5604395604394
1650361131260.824,410.0330429558426,1619.7802197802196
1650361131263.367,409.78685079555686,1595.6043956043954
1650361131264.405,410.0330429558426,1568.4981684981683
1650361131264.549,409.5409540954095,1540.6593406593406
1650361131293.282,409.2953523238381,1514.2857142857142
1650361131294.486,409.2953523238381,1489.3772893772893
1650361131318.33,409.05004495055437,1463.7362637362637
1650361131318.53,409.05004495055437,1440.2930402930401
1650361131319.578,408.80503144654085,1415.3846153846152
1650361131320.791,408.56031128404663,1391.9413919413919
1650361131330.673,408.3158839365839,1369.230769230769
1650361131330.847,407.8279055870929,1351.6483516483515
1650361131355.772,407.8279055870929,1335.5311355311355
1650361131357.1,407.5843535383696,1321.6117216117216
1650361131383.193,407.34109221128017,1312.8205128205127
1650361131383.419,406.8554396423249,1307.6923076923076
1650361131421.4338,406.8554396423249,1306.9597069597069
1650361131421.596,406.61304736371756,1309.89010989011
1650361131421.661,406.61304736371756,1317.9487179487178
1650361131421.719,406.12912823564415,1327.4725274725274
1650361131421.7761,405.88760035682424,1337.7289377289376
1650361131421.8408,405.6463595839524,1349.4505494505493
1650361131439.477,405.40540540540536,1361.904761904762
1650361131439.6638,405.40540540540536,1372.161172161172
1650361131440.739,405.1647373107747,1381.6849816849815
1650361131443.291,405.1647373107747,1390.4761904761904
1650361131453.1729,405.1647373107747,1398.5347985347985
1650361131453.333,404.9243547908632,1406.5934065934066
1650361131480.758,405.1647373107747,1412.4542124542124
1650361131481.993,404.9243547908632,1418.3150183150183
1650361131499.635,404.9243547908632,1424.1758241758241
1650361131499.839,404.6842573376816,1426.3736263736262
1650361131500.835,404.4444444444444,1427.8388278388277
1650361131504.69,404.20491560556707,1428.5714285714284
1650361131533.19,403.0115146147033,1427.106227106227
1650361131534.3572,403.24963072378137,1420.5128205128203
1650361131534.49,403.48802837718,1410.989010989011
1650361131558.5981,403.0115146147033,1400.0
1650361131559.7751,403.24963072378137,1386.8131868131868
1650361131560.051,403.0115146147033,1371.4285714285713
1650361131561.5781,403.24963072378137,1351.6483516483515
1650361131568.2969,403.48802837718,1326.7399267399267
1650361131595.652,403.0115146147033,1300.3663003663003
1650361131595.769,403.48802837718,1268.131868131868
1650361131596.996,403.24963072378137,1235.8974358974358
1650361131623.271,403.48802837718,1204.3956043956043
1650361131624.399,404.20491560556707,1175.0915750915751
1650361131624.5579,404.4444444444444,1151.6483516483515
1650361131627.007,404.6842573376816,1131.8681318681317
1650361131653.416,404.9243547908632,1115.7509157509157
1650361131654.587,404.6842573376816,1104.7619047619046
1650361131654.781,404.9243547908632,1096.7032967032967
1650361131679.531,405.1647373107747,1095.970695970696
1650361131680.768,405.40540540540536,1098.168498168498
1650361131685.636,404.9243547908632,1104.7619047619046
1650361131685.78,404.9243547908632,1112.8205128205127
1650361131686.991,405.1647373107747,1124.5421245421244
1650361131693.456,404.9243547908632,1134.7985347985348
1650361131718.198,404.6842573376816,1147.2527472527472
1650361131718.387,404.6842573376816,1158.974358974359
1650361131743.3938,404.4444444444444,1172.161172161172
1650361131744.571,404.4444444444444,1186.8131868131868
1650361131750.963,404.4444444444444,1201.4652014652013
1650361131751.3088,404.20491560556707,1216.117216117216
1650361131752.117,404.4444444444444,1231.5018315018315
1650361131753.381,404.4444444444444,1246.8864468864467
1650361131778.197,404.20491560556707,1262.2710622710622
1650361131800.817,404.20491560556707,1276.923076923077
1650361131800.984,404.4444444444444,1291.5750915750914
1650361131803.291,404.4444444444444,1307.6923076923076
1650361131804.396,404.4444444444444,1324.5421245421244
1650361131804.503,404.6842573376816,1339.194139194139
1650361131805.738,404.9243547908632,1356.0439560439559
1650361131833.2979,404.9243547908632,1371.4285714285713
1650361131834.397,404.9243547908632,1383.8827838827838
1650361131860.759,404.9243547908632,1397.069597069597
1650361131860.9321,405.1647373107747,1408.7912087912086
1650361131870.908,404.9243547908632,1418.3150183150183
1650361131871.9348,405.1647373107747,1426.3736263736262
1650361131872.108,404.9243547908632,1431.5018315018315
1650361131873.396,404.9243547908632,1436.6300366300366
1650361131898.297,405.1647373107747,1438.095238095238
1650361131923.39,404.6842573376816,1439.5604395604394
1650361131924.4832,404.9243547908632,1436.6300366300366
1650361131924.661,405.1647373107747,1433.6996336996335
1650361131928.588,405.1647373107747,1428.5714285714284
1650361131930.895,405.40540540540536,1426.3736263736262
1650361131932.027,405.1647373107747,1428.5714285714284
1650361131933.26,405.40540540540536,1431.5018315018315
1650361131958.2778,405.40540540540536,1433.6996336996335
1650361131983.289,405.1647373107747,1436.6300366300366
1650361131984.386,405.1647373107747,1439.5604395604394
1650361131984.509,405.40540540540536,1441.0256410256409
1650361131990.748,405.40540540540536,1440.2930402930401
1650361131991.98,405.6463595839524,1433.6996336996335
1650361131993.243,405.40540540540536,1424.9084249084249
1650361132018.479,405.40540540540536,1412.4542124542124
1650361132043.2861,405.40540540540536,1400.7326007326005
1650361132044.393,405.40540540540536,1393.4065934065934
1650361132045.6792,405.6463595839524,1391.2087912087911
1650361132045.902,405.6463595839524,1396.3369963369962
1650361132047.05,405.88760035682424,1408.7912087912086
1650361132048.154,405.88760035682424,1431.5018315018315
1650361132048.306,405.6463595839524,1461.5384615384614
1650361132073.5159,405.6463595839524,1496.7032967032967
1650361132074.5781,405.40540540540536,1528.2051282051282
1650361132099.4202,405.1647373107747,1559.7069597069597
1650361132099.598,404.9243547908632,1584.6153846153845
1650361132100.755,405.88760035682424,1605.128205128205
1650361132103.293,406.3709437332539,1618.3150183150183
1650361132110.7532,406.8554396423249,1620.5128205128203
1650361132110.905,406.8554396423249,1613.9194139194137
1650361132140.774,407.098121085595,1598.5347985347985
1650361132142.001,407.098121085595,1576.5567765567764
1650361132160.705,406.8554396423249,1550.18315018315
1650361132163.1812,406.8554396423249,1520.8791208791208
1650361132163.278,406.61304736371756,1492.3076923076922
1650361132164.609,406.61304736371756,1461.5384615384614
1650361132199.4219,406.61304736371756,1430.7692307692307
1650361132199.6118,406.12912823564415,1403.6630036630036
1650361132200.74,406.3709437332539,1379.4871794871794
1650361132218.3699,406.3709437332539,1358.974358974359
1650361132220.562,406.12912823564415,1344.3223443223442
1650361132220.792,406.12912823564415,1333.3333333333333
1650361132220.8682,405.88760035682424,1323.8095238095236
1650361132224.539,406.12912823564415,1317.9487179487178
1650361132259.9521,405.88760035682424,1314.2857142857142
1650361132260.171,405.88760035682424,1312.8205128205127
1650361132260.7788,405.6463595839524,1315.7509157509157
1650361132275.964,405.40540540540536,1319.4139194139193
1650361132276.978,405.1647373107747,1323.8095238095236
1650361132277.2998,404.4444444444444,1326.007326007326
1650361132278.348,404.4444444444444,1328.937728937729
1650361132288.281,404.20491560556707,1333.3333333333333
1650361132314.6292,404.4444444444444,1341.3919413919414
1650361132314.83,404.20491560556707,1350.18315018315
1650361132315.9412,404.20491560556707,1359.7069597069597
1650361132345.782,403.9656703166617,1369.9633699633698
1650361132346.866,404.20491560556707,1376.5567765567764
1650361132346.988,403.9656703166617,1386.080586080586
1650361132348.326,404.20491560556707,1394.139194139194
1650361132350.7568,404.20491560556707,1397.8021978021977
1650361132379.455,404.20491560556707,1402.197802197802
1650361132379.631,403.9656703166617,1404.3956043956043
1650361132380.776,404.4444444444444,1406.5934065934066
1650361132395.759,404.6842573376816,1407.3260073260071
1650361132396.8699,404.6842573376816,1405.8608058608058
1650361132397.018,404.4444444444444,1401.4652014652013
1650361132398.247,404.4444444444444,1395.6043956043954
1650361132410.838,404.20491560556707,1390.4761904761904
1650361132440.676,404.20491560556707,1383.8827838827838
1650361132440.854,403.9656703166617,1376.5567765567764
1650361132442.051,403.9656703166617,1369.230769230769
1650361132467.21,403.72670807453414,1361.904761904762
1650361132468.321,403.48802837718,1356.0439560439559
1650361132473.277,403.48802837718,1350.9157509157508
1650361132473.4768,402.5361250368623,1347.985347985348
1650361132498.301,401.3525433695972,1344.3223443223442
1650361132524.128,400.1759014951627,1342.1245421245421
1650361132524.3582,399.47322212467077,1336.263736263736
1650361132524.554,399.47322212467077,1334.065934065934
1650361132527.209,398.7730061349693,1331.8681318681317
1650361132528.2869,398.3075576305807,1331.135531135531
1650361132528.5051,398.3075576305807,1328.937728937729
1650361132532.058,397.8431944039639,1331.135531135531
1650361132533.261,397.3799126637555,1332.6007326007325
1650361132558.2012,397.14867617107944,1335.5311355311355
1650361132558.365,396.91770863623145,1335.5311355311355
1650361132583.2751,397.3799126637555,1335.5311355311355
1650361132584.481,397.8431944039639,1335.5311355311355
1650361132590.656,398.54014598540147,1336.263736263736
1650361132590.827,399.7071742313324,1337.7289377289376
1650361132617.295,399.9414005273953,1337.7289377289376
1650361132618.511,400.4106776180698,1337.7289377289376
1650361132618.684,400.8810572687225,1335.5311355311355
1650361132643.2878,400.6457293806868,1333.3333333333333
1650361132644.4958,401.1166617690273,1330.4029304029302
1650361132648.2761,401.58870255957635,1328.2051282051282
1650361132650.633,402.2988505747126,1327.4725274725274
1650361132650.78,402.5361250368623,1326.7399267399267
1650361132651.984,402.7736795514901,1327.4725274725274
1650361132685.821,403.0115146147033,1329.6703296703297
1650361132699.408,403.9656703166617,1331.8681318681317
1650361132699.592,405.1647373107747,1334.7985347985348
1650361132700.761,405.88760035682424,1342.1245421245421
1650361132703.228,406.3709437332539,1348.7179487179487
1650361132704.3691,405.88760035682424,1353.8461538461538
1650361132740.7861,405.88760035682424,1355.3113553113553
1650361132740.973,405.6463595839524,1357.5091575091574
1650361132742.0298,405.6463595839524,1357.5091575091574
1650361132759.521,405.40540540540536,1358.974358974359
1650361132759.775,405.1647373107747,1360.4395604395604
1650361132760.831,404.9243547908632,1360.4395604395604
1650361132763.3728,404.9243547908632,1358.974358974359
1650361132764.476,405.1647373107747,1357.5091575091574
1650361132764.647,404.9243547908632,1355.3113553113553
1650361132792.041,404.4444444444444,1357.5091575091574
1650361132793.261,404.4444444444444,1358.2417582417581
1650361132815.809,403.9656703166617,1360.4395604395604
1650361132815.991,403.9656703166617,1362.6373626373625
1650361132817.059,403.72670807453414,1364.8351648351647
1650361132818.309,403.24963072378137,1365.5677655677655
1650361132828.205,402.5361250368623,1367.032967032967
1650361132828.42,401.8251398292611,1370.6959706959706
1650361132858.434,401.58870255957635,1373.6263736263736
1650361132883.29,401.1166617690273,1375.091575091575
1650361132884.355,400.6457293806868,1376.5567765567764
1650361132884.44,399.9414005273953,1376.5567765567764
1650361132885.784,399.00613855597777,1375.8241758241757
1650361132887.017,398.7730061349693,1372.161172161172
1650361132888.169,398.0752405949256,1369.9633699633698
1650361132913.3,397.3799126637555,1368.4981684981683
1650361132913.489,397.3799126637555,1374.3589743589744
1650361132914.5059,397.14867617107944,1386.080586080586
1650361132939.499,396.4565785652048,1405.8608058608058
1650361132939.7732,395.76688895331984,1429.3040293040292
1650361132940.804,395.5375253549696,1462.2710622710622
1650361132947.153,394.8510269019381,1502.5641025641025
1650361132980.6719,394.62272333044234,1544.3223443223442
1650361132980.846,395.0795947901592,1586.8131868131868
1650361132982.0608,395.3084274543875,1627.8388278388277
1650361132999.654,395.3084274543875,1663.003663003663
1650361133000.7,395.99651871192344,1690.8424908424906
1650361133000.844,395.99651871192344,1709.8901098901097
1650361133003.415,396.22641509433964,1722.3443223443223
1650361133004.617,396.4565785652048,1723.8095238095236
1650361133039.4421,396.6870095902354,1713.5531135531135
1650361133057.116,396.4565785652048,1695.2380952380952
1650361133057.3872,396.6870095902354,1670.3296703296703
1650361133058.4158,396.4565785652048,1639.5604395604394
1650361133059.416,396.6870095902354,1605.128205128205
1650361133059.5369,397.14867617107944,1567.7655677655678
1650361133060.745,397.6114185843286,1531.8681318681317
1650361133085.792,398.0752405949256,1493.040293040293
1650361133086.986,398.0752405949256,1457.8754578754579
1650361133087.126,398.0752405949256,1421.9780219780218
1650361133112.16,397.8431944039639,1390.4761904761904
1650361133113.3289,397.8431944039639,1360.4395604395604
1650361133130.627,397.6114185843286,1335.5311355311355
1650361133130.778,397.3799126637555,1316.4835164835165
1650361133132.0022,397.3799126637555,1305.4945054945053
1650361133133.2532,397.3799126637555,1298.168498168498
1650361133159.4739,397.3799126637555,1295.970695970696
1650361133159.6401,397.14867617107944,1296.7032967032967
1650361133160.795,397.14867617107944,1296.7032967032967
1650361133179.54,396.91770863623145,1297.4358974358975
1650361133180.656,396.6870095902354,1299.6336996336995
1650361133180.816,396.6870095902354,1300.3663003663003
1650361133183.241,396.91770863623145,1302.5641025641025
1650361133193.413,396.91770863623145,1303.2967032967033
1650361133218.193,396.91770863623145,1306.227106227106
1650361133218.3572,396.6870095902354,1308.4249084249084
1650361133239.554,396.6870095902354,1309.89010989011
1650361133240.7761,396.6870095902354,1312.087912087912
1650361133243.1382,396.6870095902354,1315.7509157509157
1650361133243.263,396.4565785652048,1320.8791208791208
1650361133247.0442,396.6870095902354,1328.937728937729
1650361133273.299,396.6870095902354,1338.4615384615383
1650361133274.373,396.6870095902354,1351.6483516483515
1650361133299.966,396.4565785652048,1367.7655677655678
1650361133300.159,396.6870095902354,1386.8131868131868
1650361133300.841,396.6870095902354,1405.8608058608058
1650361133308.265,396.6870095902354,1423.4432234432234
1650361133308.424,396.6870095902354,1441.7582417582416
1650361133310.903,396.6870095902354,1457.142857142857
1650361133337.029,396.91770863623145,1467.3992673992673
1650361133338.1592,396.4565785652048,1474.7252747252746
1650361133338.324,396.91770863623145,1477.6556776556777
1650361133355.762,397.6114185843286,1480.5860805860805
1650361133355.988,397.3799126637555,1478.3882783882782
1650361133360.7769,397.8431944039639,1473.9926739926739
1650361133360.982,397.8431944039639,1466.6666666666665
1650361133370.801,397.8431944039639,1459.3406593406592
1650361133400.878,398.0752405949256,1449.8168498168498
1650361133402.233,398.0752405949256,1441.0256410256409
1650361133418.178,398.3075576305807,1432.2344322344322
1650361133418.363,398.3075576305807,1422.7106227106226
1650361133419.484,398.3075576305807,1414.6520146520145
1650361133420.6409,398.7730061349693,1406.5934065934066
1650361133420.755,398.3075576305807,1400.0
1650361133445.983,398.3075576305807,1392.6739926739926
1650361133447.213,398.7730061349693,1383.150183150183
1650361133471.928,398.7730061349693,1375.8241758241757
1650361133473.1418,398.7730061349693,1367.7655677655678
1650361133473.305,399.00613855597777,1361.1721611721612
1650361133485.781,399.23954372623575,1356.7765567765566
1650361133486.916,399.23954372623575,1349.4505494505493
1650361133487.0652,399.00613855597777,1344.3223443223442
1650361133525.8,399.47322212467077,1342.1245421245421
1650361133540.8772,399.47322212467077,1339.194139194139
1650361133543.238,399.47322212467077,1337.7289377289376
1650361133544.479,399.47322212467077,1334.7985347985348
1650361133544.626,399.7071742313324,1331.8681318681317
1650361133545.947,399.9414005273953,1325.2747252747251
1650361133547.023,400.1759014951627,1317.9487179487178
1650361133547.293,400.1759014951627,1308.4249084249084
1650361133587.034,400.4106776180698,1300.3663003663003
1650361133588.255,400.4106776180698,1293.7728937728937
1650361133598.383,400.8810572687225,1288.6446886446886
1650361133599.631,400.8810572687225,1286.4468864468863
1650361133599.9119,401.3525433695972,1290.10989010989
1650361133600.771,401.8251398292611,1298.168498168498
1650361133610.807,402.06185567010306,1310.6227106227104
1650361133611.011,402.2988505747126,1323.8095238095236
1650361133647.216,402.5361250368623,1339.194139194139
1650361133648.4111,402.5361250368623,1354.5787545787546
1650361133663.2131,403.0115146147033,1370.6959706959706
1650361133663.458,402.7736795514901,1384.6153846153845
1650361133664.5278,403.24963072378137,1397.069597069597
1650361133665.77,403.24963072378137,1404.3956043956043
1650361133693.335,403.72670807453414,1409.5238095238094
1650361133693.5142,403.9656703166617,1413.1868131868132
1650361133694.6052,403.72670807453414,1418.3150183150183
1650361133719.47,404.20491560556707,1422.7106227106226
1650361133719.657,404.4444444444444,1427.106227106227
1650361133719.732,404.20491560556707,1432.2344322344322
1650361133720.753,404.9243547908632,1436.6300366300366
1650361133728.2651,404.9243547908632,1438.095238095238
1650361133730.629,404.9243547908632,1439.5604395604394
1650361133730.779,404.9243547908632,1442.4908424908424
1650361133760.916,404.9243547908632,1453.4798534798533
1650361133762.113,405.6463595839524,1469.5970695970695
1650361133763.212,405.40540540540536,1495.2380952380952
1650361133779.386,405.40540540540536,1527.4725274725274
1650361133779.523,405.88760035682424,1565.5677655677655
1650361133780.753,405.88760035682424,1605.8608058608058
1650361133805.9548,405.88760035682424,1648.3516483516482
1650361133806.167,406.12912823564415,1687.179487179487
1650361133807.3062,406.12912823564415,1726.007326007326
1650361133839.661,406.61304736371756,1758.2417582417581
1650361133840.632,406.3709437332539,1784.6153846153845
1650361133843.134,406.3709437332539,1804.3956043956043
1650361133843.243,406.8554396423249,1814.6520146520145
1650361133850.841,406.61304736371756,1812.4542124542124
1650361133880.6802,407.098121085595,1805.8608058608058
1650361133880.864,407.098121085595,1789.7435897435896
1650361133882.059,407.34109221128017,1769.230769230769
1650361133898.407,407.8279055870929,1740.6593406593406
1650361133899.596,407.5843535383696,1710.6227106227104
1650361133899.817,407.8279055870929,1679.120879120879
1650361133900.849,408.3158839365839,1645.4212454212452
1650361133925.7778,408.07174887892376,1613.186813186813
1650361133926.897,408.56031128404663,1586.080586080586
1650361133927.037,408.3158839365839,1561.1721611721612
1650361133954.757,408.56031128404663,1544.3223443223442
1650361133955.8909,408.80503144654085,1529.6703296703295
1650361133960.803,408.80503144654085,1515.7509157509157
1650361133964.4639,409.05004495055437,1502.5641025641025
1650361133964.689,409.05004495055437,1493.7728937728937
1650361133999.66,409.05004495055437,1482.051282051282
1650361134000.908,409.5409540954095,1471.7948717948716
1650361134013.302,409.05004495055437,1463.003663003663
1650361134015.759,409.78685079555686,1454.212454212454
1650361134017.0269,409.5409540954095,1443.956043956044
1650361134018.125,409.5409540954095,1435.164835164835
1650361134028.178,409.78685079555686,1428.5714285714284
1650361134028.327,410.0330429558426,1424.9084249084249
1650361134059.5378,410.2795311091073,1421.9780219780218
1650361134060.6338,410.2795311091073,1422.7106227106226
1650361134060.758,410.5263157894737,1426.3736263736262
1650361134079.658,411.26845435372104,1432.9670329670328
1650361134080.832,411.26845435372104,1438.095238095238
1650361134083.262,412.0132810141866,1445.4212454212454
1650361134083.479,412.262156448203,1451.2820512820513
1650361134088.5042,412.262156448203,1459.3406593406592
1650361134113.291,412.76081040217724,1466.6666666666665
1650361134114.393,412.262156448203,1471.062271062271
1650361134114.563,412.76081040217724,1474.7252747252746
1650361134140.81,412.76081040217724,1478.3882783882782
1650361134143.159,412.262156448203,1477.6556776556777
1650361134143.28,413.0105900151286,1473.9926739926739
1650361134143.357,412.51133272892116,1468.8644688644688
1650361134153.2559,413.260672116258,1464.4688644688645
1650361134178.309,413.260672116258,1457.8754578754579
1650361134199.397,413.0105900151286,1450.5494505494505
1650361134199.545,413.5110572553772,1441.7582417582416
1650361134200.802,413.0105900151286,1432.9670329670328
1650361134203.471,413.0105900151286,1423.4432234432234
1650361134204.48,413.260672116258,1414.6520146520145
1650361134229.422,412.76081040217724,1405.8608058608058
1650361134229.6008,413.76174598363144,1400.0
1650361134230.742,413.260672116258,1393.4065934065934
1650361134257.623,413.5110572553772,1388.278388278388
1650361134257.9292,413.76174598363144,1383.150183150183
1650361134258.419,413.5110572553772,1380.952380952381
1650361134273.2798,414.26403641881643,1376.5567765567764
1650361134298.305,414.0127388535032,1374.3589743589744
1650361134298.422,414.0127388535032,1372.161172161172
1650361134320.817,414.26403641881643,1369.230769230769
1650361134323.233,413.76174598363144,1367.032967032967
1650361134324.3699,414.26403641881643,1365.5677655677655
1650361134324.498,414.0127388535032,1362.6373626373625
1650361134325.742,414.0127388535032,1362.6373626373625
1650361134326.986,414.26403641881643,1361.904761904762
1650361134328.124,413.76174598363144,1361.904761904762
1650361134353.374,414.0127388535032,1361.1721611721612
1650361134353.59,414.0127388535032,1363.3699633699632
1650361134354.752,413.76174598363144,1363.3699633699632
1650361134379.434,414.26403641881643,1364.102564102564
1650361134379.625,413.5110572553772,1363.3699633699632
1650361134380.748,413.76174598363144,1364.102564102564
1650361134388.245,414.0127388535032,1361.904761904762
1650361134413.218,413.5110572553772,1359.7069597069597
1650361134413.386,413.76174598363144,1359.7069597069597
1650361134413.469,413.260672116258,1358.974358974359
1650361134414.489,413.5110572553772,1357.5091575091574
1650361134439.5908,413.76174598363144,1357.5091575091574
1650361134439.81,413.0105900151286,1356.7765567765566
1650361134440.769,413.260672116258,1357.5091575091574
1650361134445.895,413.260672116258,1358.2417582417581
1650361134451.9229,412.76081040217724,1359.7069597069597
1650361134480.683,413.0105900151286,1361.904761904762
1650361134480.8708,412.262156448203,1364.8351648351647
1650361134482.002,412.51133272892116,1366.3003663003662
1650361134507.0232,412.51133272892116,1364.102564102564
1650361134507.239,412.0132810141866,1362.6373626373625
1650361134508.27,412.0132810141866,1362.6373626373625
1650361134510.8298,411.51643050949656,1362.6373626373625
1650361134540.838,411.51643050949656,1364.102564102564
1650361134542.97,411.51643050949656,1364.102564102564
1650361134543.281,410.7733975323503,1366.3003663003662
1650361134567.7031,411.02077687443546,1365.5677655677655
1650361134568.208,410.2795311091073,1361.904761904762
1650361134568.319,410.2795311091073,1358.974358974359
1650361134570.947,410.2795311091073,1358.2417582417581
1650361134572.0898,409.5409540954095,1356.7765567765566
1650361134600.6838,409.78685079555686,1353.8461538461538
1650361134600.847,408.80503144654085,1351.6483516483515
1650361134602.0352,408.56031128404663,1350.9157509157508
1650361134626.18,408.80503144654085,1350.18315018315
1650361134627.0881,408.07174887892376,1351.6483516483515
1650361134627.274,408.3158839365839,1356.7765567765566
1650361134628.371,407.5843535383696,1370.6959706959706
1650361134630.907,407.34109221128017,1392.6739926739926
1650361134660.9841,407.34109221128017,1425.6410256410256
1650361134661.216,406.8554396423249,1468.131868131868
1650361134662.343,406.61304736371756,1516.4835164835163
1650361134686.147,406.61304736371756,1569.230769230769
1650361134687.095,405.88760035682424,1623.4432234432234
1650361134687.292,405.88760035682424,1680.5860805860805
1650361134688.3718,405.40540540540536,1734.7985347985348
1650361134713.788,404.9243547908632,1786.8131868131868
1650361134714.62,404.9243547908632,1830.7692307692307
1650361134714.8162,404.6842573376816,1865.9340659340658
1650361134739.819,404.4444444444444,1893.040293040293
1650361134740.101,403.9656703166617,1912.087912087912
1650361134740.712,403.72670807453414,1921.6117216117216
1650361134740.865,403.9656703166617,1922.344322344322
1650361134745.991,403.0115146147033,1915.018315018315
1650361134773.5469,403.0115146147033,1895.970695970696
1650361134774.6301,402.7736795514901,1868.8644688644688
1650361134799.946,402.2988505747126,1835.164835164835
1650361134800.195,402.06185567010306,1799.2673992673992
1650361134800.88,401.58870255957635,1760.4395604395604
1650361134810.952,401.3525433695972,1720.8791208791208
1650361134811.175,400.8810572687225,1684.249084249084
1650361134812.267,400.1759014951627,1652.0146520146518
1650361134840.851,400.1759014951627,1622.7106227106226
1650361134842.118,399.23954372623575,1600.7326007326005
1650361134867.3699,399.23954372623575,1578.021978021978
1650361134867.5688,398.7730061349693,1559.7069597069597
1650361134868.48,398.3075576305807,1542.8571428571427
1650361134870.945,397.8431944039639,1524.5421245421244
1650361134871.302,397.8431944039639,1504.7619047619046
1650361134872.146,397.14867617107944,1490.10989010989
1650361134900.818,396.91770863623145,1478.3882783882782
1650361134901.9402,396.22641509433964,1468.131868131868
1650361134923.248,396.22641509433964,1460.07326007326
1650361134923.6072,395.5375253549696,1455.6776556776556
1650361134924.581,395.3084274543875,1453.4798534798533
1650361134925.8708,395.0795947901592,1453.4798534798533
1650361134926.0818,394.62272333044234,1452.014652014652
1650361134933.675,394.1669073058042,1454.212454212454
1650361134958.496,393.93939393939394,1452.014652014652
1650361134983.522,393.4851542231191,1452.014652014652
1650361134984.519,393.4851542231191,1452.7472527472526
1650361134984.694,392.5798101811907,1457.142857142857
1650361134988.53,392.35412474849096,1460.8058608058607
1650361134991.003,392.1286986498133,1463.7362637362637
1650361134992.27,391.4539718956123,1464.4688644688645
1650361134993.5479,391.22957867583835,1464.4688644688645
1650361135018.507,391.22957867583835,1464.4688644688645
1650361135039.697,390.78156312625254,1460.8058608058607
1650361135039.9402,390.78156312625254,1456.4102564102564
1650361135040.965,389.8886032562125,1449.084249084249
1650361135043.467,390.1114604172621,1440.2930402930401
1650361135051.145,389.44365192582023,1430.03663003663
1650361135051.347,389.2215568862275,1419.047619047619
1650361135081.383,388.7781258900598,1406.5934065934066
1650361135082.258,388.5567890691716,1394.139194139194
1650361135107.2139,388.33570412517776,1381.6849816849815
1650361135108.5068,387.8942881500426,1366.3003663003662
1650361135108.706,387.45387453874537,1354.5787545787546
1650361135112.582,387.23404255319144,1343.5897435897434
1650361135113.2468,386.79512609804476,1333.3333333333333
1650361135113.397,386.79512609804476,1322.3443223443223
1650361135138.7441,385.9202714164546,1314.2857142857142
1650361135161.259,385.7021757558632,1308.4249084249084
1650361135163.302,385.7021757558632,1305.4945054945053
1650361135164.666,385.2667231160034,1302.5641025641025
1650361135164.856,384.8322526078376,1301.8315018315018
1650361135165.9392,384.8322526078376,1301.098901098901
1650361135173.319,384.1823810864058,1301.098901098901
1650361135173.5251,384.1823810864058,1301.8315018315018
1650361135200.857,383.53470075864004,1304.0293040293038
1650361135202.193,383.53470075864004,1305.4945054945053
1650361135227.221,383.31929233361416,1306.227106227106
1650361135228.504,382.88920056100983,1305.4945054945053
1650361135228.7,382.46007284953765,1307.6923076923076
1650361135230.979,382.24586950434053,1308.4249084249084
1650361135232.039,381.8181818181818,1310.6227106227104
1650361135232.268,382.031905961377,1313.5531135531135
1650361135260.833,380.96567122523027,1319.4139194139193
1650361135262.0698,381.1784417760402,1322.3443223443223
1650361135268.2158,380.7531380753138,1325.2747252747251
1650361135268.385,380.54084192918873,1327.4725274725274
1650361135285.975,380.3287823906381,1329.6703296703297
1650361135287.162,379.69401947148816,1331.8681318681317
1650361135313.593,379.69401947148816,1332.6007326007325
1650361135313.832,379.2720200055571,1332.6007326007325
1650361135314.734,378.8509575353872,1331.8681318681317
1650361135339.7131,378.8509575353872,1329.6703296703297
1650361135340.822,378.43082894372054,1328.2051282051282
1650361135341.012,378.43082894372054,1327.4725274725274
1650361135351.095,377.802380293385,1326.7399267399267
1650361135352.22,377.3845728504285,1323.8095238095236
1650361135381.075,377.3845728504285,1320.8791208791208
1650361135381.36,377.17601547388784,1317.9487179487178
1650361135382.172,376.96768848384426,1316.4835164835165
1650361135403.5398,376.75959149875797,1315.7509157509157
1650361135404.5151,376.3440860215054,1315.018315018315
1650361135404.719,375.9294960066098,1312.8205128205127
1650361135405.941,375.7225433526012,1312.087912087912
1650361135413.749,375.7225433526012,1310.6227106227104
1650361135438.667,375.309320868848,1311.3553113553112
1650361135438.9019,375.309320868848,1309.89010989011
1650361135463.351,375.1030502885408,1310.6227106227104
1650361135464.655,374.69118858084,1311.3553113553112
1650361135465.791,374.69118858084,1312.8205128205127
1650361135466.9768,374.69118858084,1313.5531135531135
1650361135467.1199,374.0750890654974,1315.7509157509157
1650361135493.684,374.0750890654974,1318.6813186813185
1650361135494.586,373.6654804270463,1320.14652014652
1650361135494.792,373.6654804270463,1317.216117216117
1650361135521.2258,373.6654804270463,1315.7509157509157
1650361135528.682,373.4610123119015,1313.5531135531135
1650361135530.852,373.4610123119015,1312.8205128205127
1650361135531.048,373.2567678424939,1311.3553113553112
1650361135532.0671,373.0527466520908,1311.3553113553112
1650361135533.47,373.0527466520908,1311.3553113553112
1650361135558.574,372.84894837476105,1315.018315018315
1650361135558.769,372.84894837476105,1324.5421245421244
1650361135583.686,372.44201909959077,1339.9267399267399
1650361135584.657,372.44201909959077,1365.5677655677655
1650361135587.1821,372.2388873738751,1403.6630036630036
1650361135588.283,372.2388873738751,1449.8168498168498
1650361135588.5068,372.03597710547837,1504.7619047619046
1650361135614.6409,372.03597710547837,1563.3699633699632
1650361135615.876,371.83328793244345,1626.3736263736262
1650361135616.082,371.83328793244345,1688.6446886446886
1650361135643.399,371.4285714285714,1749.4505494505493
1650361135644.584,371.22654337775356,1803.6630036630036
1650361135653.648,371.4285714285714,1852.0146520146518
1650361135653.874,371.4285714285714,1890.1098901098899
1650361135681.217,371.22654337775356,1920.14652014652
1650361135682.2332,371.0247349823321,1936.9963369963368
1650361135710.779,371.0247349823321,1941.3919413919414
1650361135711.045,371.22654337775356,1932.6007326007325
1650361135712.085,370.62177572631003,1912.8205128205127
1650361135713.5,370.82314588427056,1881.3186813186812
1650361135740.808,370.82314588427056,1843.956043956044
1650361135740.9192,370.82314588427056,1799.9999999999998
1650361135742.1492,370.62177572631003,1757.5091575091574
1650361135771.1921,370.62177572631003,1711.3553113553112
1650361135772.0498,370.82314588427056,1664.4688644688645
1650361135772.244,371.0247349823321,1620.5128205128203
1650361135779.864,370.62177572631003,1581.6849816849815
1650361135780.994,370.82314588427056,1546.5201465201465
1650361135782.014,371.0247349823321,1515.018315018315
1650361135782.208,371.0247349823321,1486.4468864468863
1650361135783.385,371.0247349823321,1462.2710622710622
1650361135785.9211,370.82314588427056,1441.0256410256409
1650361135795.978,370.4206241519674,1423.4432234432234
1650361135796.173,371.0247349823321,1406.5934065934066
1650361135805.99,370.82314588427056,1391.9413919413919
1650361135831.123,371.22654337775356,1379.4871794871794
1650361135831.964,371.0247349823321,1370.6959706959706
1650361135861.1099,371.6308194936019,1364.8351648351647
1650361135861.601,371.22654337775356,1363.3699633699632
1650361135862.219,371.4285714285714,1362.6373626373625
1650361135871.2002,371.83328793244345,1363.3699633699632
1650361135872.129,371.6308194936019,1364.102564102564
1650361135873.447,371.83328793244345,1367.7655677655678
1650361135881.223,372.03597710547837,1372.8937728937728
1650361135891.009,371.83328793244345,1380.2197802197802
1650361135921.057,372.44201909959077,1387.5457875457876
1650361135921.4011,371.83328793244345,1396.3369963369962
1650361135922.168,372.2388873738751,1403.6630036630036
1650361135947.1829,372.2388873738751,1411.7216117216117
1650361135947.426,372.44201909959077,1416.8498168498168
1650361135948.2378,372.6453726453727,1420.5128205128203
1650361135948.451,372.44201909959077,1422.7106227106226
1650361135956.066,373.0527466520908,1423.4432234432234
1650361135956.268,373.2567678424939,1422.7106227106226
1650361135981.28,372.84894837476105,1422.7106227106226
1650361135982.2021,373.2567678424939,1416.8498168498168
1650361136011.177,373.2567678424939,1410.989010989011
1650361136011.3708,373.4610123119015,1401.4652014652013
1650361136012.207,373.2567678424939,1394.139194139194
1650361136014.68,373.4610123119015,1383.8827838827838
1650361136015.836,373.6654804270463,1371.4285714285713
1650361136040.841,373.2567678424939,1360.4395604395604
1650361136041.046,373.2567678424939,1348.7179487179487
1650361136042.272,373.6654804270463,1336.9963369963368
1650361136067.3298,373.4610123119015,1326.7399267399267
1650361136067.538,373.8701725554643,1315.7509157509157
1650361136068.376,373.4610123119015,1306.9597069597069
1650361136074.763,373.6654804270463,1297.4358974358975
1650361136075.856,373.8701725554643,1289.3772893772893
1650361136076.059,373.4610123119015,1284.9816849816848
1650361136101.301,373.4610123119015,1279.8534798534797
1650361136102.315,373.8701725554643,1276.923076923077
1650361136131.106,373.6654804270463,1276.923076923077
1650361136131.338,374.0750890654974,1275.4578754578754
1650361136132.215,373.6654804270463,1275.4578754578754
1650361136134.6719,374.0750890654974,1276.1904761904761
1650361136161.0662,373.8701725554643,1277.6556776556777
1650361136161.571,373.6654804270463,1282.051282051282
1650361136162.3098,373.8701725554643,1283.5164835164835
1650361136191.254,373.6654804270463,1284.9816849816848
1650361136192.251,373.6654804270463,1290.10989010989
1650361136192.45,373.8701725554643,1296.7032967032967
1650361136217.578,373.4610123119015,1302.5641025641025
1650361136218.535,373.8701725554643,1304.7619047619046
1650361136243.7551,373.6654804270463,1307.6923076923076
1650361136244.0059,373.4610123119015,1312.087912087912
1650361136244.7341,373.4610123119015,1315.7509157509157
1650361136252.517,373.4610123119015,1317.216117216117
1650361136253.316,373.6654804270463,1317.9487179487178
1650361136253.5269,373.8701725554643,1316.4835164835165
1650361136254.594,373.4610123119015,1315.018315018315
1650361136255.896,373.6654804270463,1312.8205128205127
1650361136281.082,373.4610123119015,1311.3553113553112
1650361136281.635,373.4610123119015,1311.3553113553112
1650361136282.362,373.4610123119015,1307.6923076923076
1650361136311.1948,373.2567678424939,1304.7619047619046
1650361136312.156,373.0527466520908,1302.5641025641025
1650361136312.3691,373.0527466520908,1301.8315018315018
1650361136316.122,372.6453726453727,1301.8315018315018
1650361136340.959,372.6453726453727,1301.8315018315018
1650361136342.167,372.2388873738751,1301.098901098901
1650361136342.3691,372.6453726453727,1298.168498168498
1650361136367.38,372.03597710547837,1297.4358974358975
1650361136368.4631,372.03597710547837,1300.3663003663003
1650361136374.81,372.03597710547837,1306.9597069597069
1650361136375.008,371.83328793244345,1317.9487179487178
1650361136375.988,371.83328793244345,1336.9963369963368
1650361136378.459,371.6308194936019,1361.904761904762
1650361136405.8672,371.4285714285714,1391.9413919413919
1650361136406.142,371.6308194936019,1426.3736263736262
1650361136431.189,371.0247349823321,1464.4688644688645
1650361136432.205,371.4285714285714,1502.5641025641025
1650361136433.219,370.82314588427056,1537.7289377289376
1650361136433.471,371.0247349823321,1567.7655677655678
1650361136434.74,370.82314588427056,1592.6739926739926
1650361136460.926,370.4206241519674,1611.7216117216117
1650361136462.1438,370.62177572631003,1621.9780219780218
1650361136462.385,370.62177572631003,1627.106227106227
1650361136491.211,370.0189753320683,1628.5714285714284
1650361136492.2332,370.21969080553293,1621.245421245421
1650361136498.399,369.81847737740446,1608.058608058608
1650361136498.596,370.0189753320683,1588.278388278388
1650361136499.766,369.4181326116373,1564.102564102564
1650361136528.633,369.0186536901865,1535.5311355311355
1650361136529.741,368.8192380437719,1506.227106227106
1650361136529.9739,368.62003780718334,1476.1904761904761
1650361136530.971,368.4210526315789,1447.6190476190475
1650361136554.95,368.4210526315789,1422.7106227106226
1650361136555.978,367.82538399353274,1397.8021978021977
1650361136556.24,368.0237260717174,1372.161172161172
1650361136558.456,367.4293405114401,1347.985347985348
1650361136588.733,367.4293405114401,1326.007326007326
1650361136589.684,367.03414896477545,1308.4249084249084
1650361136589.969,366.8368718086536,1294.5054945054944
1650361136611.125,366.4429530201342,1287.9120879120878
1650361136611.338,366.24631070566136,1284.2490842490843
1650361136612.129,365.6576480042861,1283.5164835164835
1650361136612.339,366.0498793242156,1284.2490842490843
1650361136638.471,365.4618473895582,1287.179487179487
1650361136663.496,365.4618473895582,1293.7728937728937
1650361136664.64,365.2662563553653,1303.2967032967033
1650361136674.557,364.8757016840417,1316.4835164835165
1650361136674.7588,364.2914331465172,1331.8681318681317
1650361136675.872,364.2914331465172,1347.2527472527472
1650361136678.438,363.9029592108771,1361.1721611721612
1650361136679.614,363.9029592108771,1374.3589743589744
1650361136708.455,363.3217993079585,1387.5457875457876
1650361136709.769,363.12849162011173,1400.7326007326005
1650361136735.844,363.12849162011173,1411.7216117216117
1650361136738.289,362.74249269200106,1420.5128205128203
1650361136738.483,362.1650305120722,1425.6410256410256
1650361136774.8809,361.97295147175817,1427.106227106227
1650361136776.02,361.58940397350995,1427.106227106227
1650361136780.984,361.2066684308018,1424.1758241758241
1650361136783.4229,360.6340819022457,1418.3150183150183
1650361136784.611,360.6340819022457,1407.3260073260071
1650361136785.781,360.25336500395883,1395.6043956043954
1650361136786.963,360.0633078343445,1380.952380952381
1650361136787.115,359.87345109412075,1367.7655677655678
1650361136788.3,359.494337634975,1351.6483516483515
1650361136798.5999,359.494337634975,1334.065934065934
1650361136798.799,359.11602209944755,1317.216117216117
1650361136834.863,358.9271627662372,1301.8315018315018
1650361136835.922,358.9271627662372,1287.9120879120878
1650361136840.904,358.5500394011033,1276.923076923077
1650361136841.114,358.5500394011033,1269.5970695970695
1650361136843.403,357.98583792289537,1266.6666666666665
1650361136844.573,357.61068902279277,1264.4688644688645
1650361136859.77,357.7981651376147,1263.7362637362637
1650361136859.972,357.61068902279277,1265.9340659340658
1650361136884.937,357.04943761443894,1271.7948717948716
1650361136886.013,357.04943761443894,1278.3882783882782
1650361136908.5,356.8627450980392,1286.4468864468863
1650361136908.694,356.8627450980392,1293.7728937728937
1650361136910.98,356.3038371182459,1304.0293040293038
1650361136912.24,356.3038371182459,1315.018315018315
1650361136939.584,355.93220338983053,1322.3443223443223
1650361136939.863,355.5613441000261,1331.8681318681317
1650361136940.9722,355.5613441000261,1338.4615384615383
1650361136965.028,355.3762041135121,1345.054945054945
1650361136965.862,355.3762041135121,1350.18315018315
1650361136966.0808,355.19125683060105,1353.113553113553
1650361136967.0479,354.82193917338185,1356.0439560439559
1650361136974.688,354.82193917338185,1356.7765567765566
1650361137007.385,354.08560311284043,1357.5091575091574
1650361137007.643,354.2694004671684,1357.5091575091574
1650361137008.353,354.08560311284043,1358.974358974359
1650361137026.241,354.08560311284043,1361.1721611721612
1650361137027.106,353.9019963702359,1359.7069597069597
1650361137027.2988,353.7185799429904,1358.974358974359
1650361137028.3188,353.3523168521874,1358.974358974359
1650361137038.5781,353.5353535353535,1361.1721611721612
1650361137038.9111,353.16946959896507,1368.4981684981683
1650361137066.046,352.98681148176877,1384.6153846153845
1650361137087.716,352.622061482821,1409.5238095238094
1650361137088.5378,352.43996901626645,1440.2930402930401
1650361137090.877,352.43996901626645,1476.923076923077
1650361137092.0588,352.07634769151406,1517.9487179487178
1650361137092.2551,351.8948182521268,1564.8351648351647
1650361137099.8572,351.71347590827105,1613.186813186813
1650361137124.9731,351.17056856187287,1663.7362637362637
1650361137125.289,351.17056856187287,1712.087912087912
1650361137126.007,350.9899717150938,1758.2417582417581
1650361137148.724,350.8095605242868,1797.069597069597
1650361137150.825,350.62933470331365,1828.5714285714284
1650361137151.0361,350.4492939666239,1849.084249084249
1650361137152.129,350.08976660682225,1858.6080586080584
1650361137181.3892,349.73097617217525,1853.4798534798533
1650361137182.141,349.73097617217525,1836.6300366300366
1650361137182.442,349.5518565941101,1810.989010989011
1650361137206.138,349.01559703400665,1780.2197802197802
1650361137207.285,349.01559703400665,1742.124542124542
1650361137208.3079,349.01559703400665,1698.9010989010987
1650361137208.5012,348.83720930232556,1652.0146520146518
1650361137212.139,348.4809803420985,1603.6630036630036
1650361137266.126,348.1254781943382,1553.8461538461538
1650361137267.088,348.303138555754,1507.6923076923076
1650361137267.3472,348.1254781943382,1465.9340659340658
1650361137268.403,347.77070063694265,1429.3040293040292
1650361137271.017,347.77070063694265,1398.5347985347985
1650361137272.072,347.41664545685927,1369.9633699633698
1650361137272.267,347.59358288770056,1345.054945054945
1650361137278.337,347.06331045003816,1323.076923076923
1650361137308.5908,346.8869123252859,1305.4945054945053
1650361137309.598,347.06331045003816,1290.8424908424909
1650361137309.8071,346.8869123252859,1279.8534798534797
1650361137332.35,346.53465346534654,1275.4578754578754
1650361137333.472,346.3587921847247,1273.260073260073
1650361137334.5972,346.1831093076338,1275.4578754578754
1650361137361.041,346.1831093076338,1282.7838827838827
1650361137361.437,345.83227767925007,1293.040293040293
1650361137362.264,346.00760456273764,1304.7619047619046
1650361137362.571,345.65712838693344,1318.6813186813185
1650361137362.904,345.83227767925007,1334.065934065934
1650361137387.371,345.65712838693344,1348.7179487179487
1650361137388.4211,345.4821564160972,1364.102564102564
1650361137393.382,345.83227767925007,1379.4871794871794
1650361137423.325,345.83227767925007,1391.9413919413919
1650361137423.528,345.4821564160972,1404.3956043956043
1650361137424.6409,345.65712838693344,1411.7216117216117
1650361137446.038,345.65712838693344,1417.5824175824175
1650361137447.211,345.83227767925007,1421.245421245421
1650361137448.336,345.65712838693344,1421.245421245421
1650361137450.868,345.83227767925007,1415.3846153846152
1650361137451.9392,346.00760456273764,1408.058608058608
1650361137481.0159,346.00760456273764,1397.069597069597
1650361137481.315,346.00760456273764,1384.6153846153845
1650361137482.28,346.1831093076338,1369.9633699633698
1650361137507.088,346.00760456273764,1354.5787545787546
1650361137508.343,346.1831093076338,1339.194139194139
1650361137516.163,345.65712838693344,1324.5421245421244
1650361137518.411,345.83227767925007,1310.6227106227104
1650361137519.458,345.83227767925007,1300.3663003663003
1650361137548.49,345.83227767925007,1292.3076923076922
1650361137548.6792,345.3073614975968,1289.3772893772893
1650361137549.8198,345.1327433628319,1285.7142857142856
1650361137550.855,344.95830174374527,1282.7838827838827
1650361137551.043,345.1327433628319,1282.051282051282
1650361137566.415,344.6099469830851,1280.5860805860805
1650361137567.1648,344.78403637282145,1279.120879120879
1650361137578.616,344.95830174374527,1276.923076923077
1650361137578.876,344.6099469830851,1274.7252747252746
1650361137608.4348,344.6099469830851,1273.260073260073
1650361137609.736,344.4360333080999,1271.062271062271
1650361137627.346,344.6099469830851,1270.3296703296703
1650361137627.548,344.78403637282145,1271.062271062271
1650361137628.365,344.4360333080999,1276.923076923077
1650361137631.1929,344.6099469830851,1280.5860805860805
1650361137664.8892,344.6099469830851,1284.2490842490843
1650361137665.125,344.6099469830851,1287.179487179487
1650361137666.083,344.6099469830851,1290.10989010989
1650361137683.602,344.6099469830851,1291.5750915750914
1650361137684.529,344.78403637282145,1294.5054945054944
1650361137684.71,345.1327433628319,1296.7032967032967
1650361137686.0,345.1327433628319,1298.9010989010987
1650361137693.8281,345.1327433628319,1301.098901098901
1650361137724.979,345.4821564160972,1301.8315018315018
1650361137725.974,346.1831093076338,1301.8315018315018
1650361137726.222,346.71069342138685,1301.8315018315018
1650361137743.659,347.06331045003816,1302.5641025641025
1650361137744.707,347.41664545685927,1304.7619047619046
1650361137746.071,347.23988806919357,1307.6923076923076
1650361137747.273,347.59358288770056,1310.6227106227104
1650361137758.486,347.77070063694265,1312.087912087912
1650361137788.6592,347.9479989803722,1313.5531135531135
1650361137788.896,348.1254781943382,1315.7509157509157
1650361137789.823,347.9479989803722,1314.2857142857142
1650361137802.0571,348.1254781943382,1309.1575091575091
1650361137803.139,348.1254781943382,1303.2967032967033
1650361137803.297,348.303138555754,1301.098901098901
1650361137818.427,348.303138555754,1307.6923076923076
1650361137819.603,348.303138555754,1326.007326007326
1650361137848.734,348.4809803420985,1356.7765567765566
1650361137849.729,348.303138555754,1403.6630036630036
1650361137849.971,348.1254781943382,1463.003663003663
1650361137863.6428,348.303138555754,1532.6007326007325
1650361137864.5151,348.4809803420985,1609.5238095238094
1650361137864.645,348.303138555754,1690.10989010989
1650361137870.946,348.1254781943382,1772.8937728937728
1650361137899.882,348.303138555754,1850.5494505494505
1650361137900.805,348.4809803420985,1925.2747252747251
1650361137900.939,348.4809803420985,1989.7435897435896
1650361137926.231,348.303138555754,2042.4908424908424
1650361137927.244,348.4809803420985,2076.9230769230767
1650361137932.11,348.303138555754,2097.4358974358975
1650361137932.32,348.4809803420985,2100.3663003663
1650361137933.4321,348.303138555754,2088.6446886446884
1650361137962.491,347.9479989803722,2061.5384615384614
1650361137963.4868,348.1254781943382,2023.4432234432234
1650361137988.3572,348.1254781943382,1974.3589743589741
1650361137988.515,347.9479989803722,1921.6117216117216
1650361137992.1519,347.77070063694265,1867.3992673992673
1650361137993.252,347.9479989803722,1813.9194139194137
1650361137993.427,348.1254781943382,1764.8351648351647
1650361137994.6858,347.77070063694265,1720.8791208791208
1650361138021.024,347.77070063694265,1682.7838827838827
1650361138022.1292,347.9479989803722,1649.8168498168498
1650361138022.328,347.9479989803722,1619.7802197802196
1650361138047.3489,347.9479989803722,1595.6043956043954
1650361138048.436,347.77070063694265,1570.6959706959706
1650361138052.1082,347.9479989803722,1546.5201465201465
1650361138052.368,348.303138555754,1523.8095238095236
1650361138080.988,347.9479989803722,1502.5641025641025
1650361138082.25,348.303138555754,1479.120879120879
1650361138088.31,348.4809803420985,1456.4102564102564
1650361138088.506,348.83720930232556,1435.164835164835
1650361138089.687,349.01559703400665,1415.3846153846152
1650361138113.8389,348.65900383141764,1397.8021978021977
1650361138114.703,349.01559703400665,1383.150183150183
1650361138114.95,349.01559703400665,1370.6959706959706
1650361138116.044,348.65900383141764,1364.8351648351647
1650361138141.0479,349.01559703400665,1359.7069597069597
1650361138142.16,349.1941673062164,1356.7765567765566
1650361138142.4402,349.73097617217525,1356.7765567765566
1650361138172.545,349.73097617217525,1362.6373626373625
1650361138173.475,349.9102794155345,1369.9633699633698
1650361138207.1929,350.26943802925325,1380.2197802197802
1650361138207.562,350.26943802925325,1393.4065934065934
1650361138208.294,350.08976660682225,1405.8608058608058
1650361138223.423,350.26943802925325,1415.3846153846152
1650361138224.469,350.08976660682225,1424.1758241758241
1650361138224.6758,350.26943802925325,1432.2344322344322
1650361138226.008,349.9102794155345,1436.6300366300366
1650361138227.154,350.08976660682225,1435.8974358974358
1650361138238.403,350.08976660682225,1432.9670329670328
1650361138238.615,349.9102794155345,1424.9084249084249
1650361138268.688,349.9102794155345,1416.8498168498168
1650361138269.83,349.9102794155345,1404.3956043956043
1650361138282.041,349.9102794155345,1388.278388278388
1650361138282.2239,349.9102794155345,1371.4285714285713
1650361138283.249,349.3729203992833,1353.8461538461538
1650361138284.533,349.3729203992833,1332.6007326007325
1650361138299.622,349.01559703400665,1312.8205128205127
1650361138299.771,349.01559703400665,1294.5054945054944
1650361138327.477,348.65900383141764,1279.120879120879
1650361138328.326,348.303138555754,1266.6666666666665
1650361138343.576,348.303138555754,1257.142857142857
1650361138344.419,348.303138555754,1249.8168498168498
1650361138344.558,347.9479989803722,1246.153846153846
1650361138345.886,347.77070063694265,1246.153846153846
1650361138358.317,347.59358288770056,1249.084249084249
1650361138358.5269,347.59358288770056,1250.5494505494505
1650361138388.795,347.06331045003816,1254.9450549450548
1650361138389.791,346.8869123252859,1258.6080586080586
1650361138407.274,347.59358288770056,1259.3406593406592
1650361138408.336,347.77070063694265,1260.07326007326
1650361138408.559,347.59358288770056,1259.3406593406592
1650361138411.0662,347.77070063694265,1258.6080586080586
1650361138439.593,348.1254781943382,1257.8754578754579
1650361138439.8079,348.303138555754,1256.4102564102564
1650361138440.9822,347.9479989803722,1254.212454212454
1650361138459.975,347.77070063694265,1253.4798534798533
1650361138460.737,347.9479989803722,1253.4798534798533
1650361138460.9238,347.77070063694265,1254.212454212454
1650361138463.485,347.59358288770056,1257.8754578754579
1650361138473.544,347.41664545685927,1262.2710622710622
1650361138501.139,347.23988806919357,1264.4688644688645
1650361138501.46,347.23988806919357,1265.9340659340658
1650361138502.3179,346.71069342138685,1268.131868131868
1650361138526.206,347.06331045003816,1268.131868131868
1650361138527.119,347.23988806919357,1266.6666666666665
1650361138527.322,347.41664545685927,1263.7362637362637
1650361138528.514,347.23988806919357,1261.5384615384614
1650361138538.768,346.8869123252859,1257.142857142857
1650361138568.604,347.23988806919357,1252.014652014652
1650361138568.845,347.06331045003816,1249.084249084249
1650361138586.47,346.71069342138685,1246.8864468864467
1650361138587.2058,347.06331045003816,1248.3516483516482
1650361138588.293,346.71069342138685,1251.2820512820513
1650361138588.57,346.71069342138685,1257.142857142857
1650361138590.962,346.71069342138685,1262.2710622710622
1650361138626.218,346.53465346534654,1265.9340659340658
1650361138640.884,346.8869123252859,1267.3992673992673
1650361138641.105,346.71069342138685,1265.2014652014652
1650361138643.39,346.3587921847247,1263.003663003663
1650361138644.713,346.53465346534654,1260.8058608058607
1650361138645.856,346.53465346534654,1255.6776556776556
1650361138655.8508,346.3587921847247,1251.2820512820513
1650361138656.051,346.3587921847247,1248.3516483516482
1650361138686.1301,346.3587921847247,1248.3516483516482
1650361138703.543,346.53465346534654,1255.6776556776556
1650361138703.7449,346.3587921847247,1271.062271062271
1650361138704.679,346.3587921847247,1294.5054945054944
1650361138706.033,346.3587921847247,1326.7399267399267
1650361138707.084,346.1831093076338,1370.6959706959706
1650361138713.769,346.53465346534654,1424.1758241758241
1650361138714.125,346.1831093076338,1487.9120879120878
1650361138741.3572,346.3587921847247,1560.4395604395604
1650361138742.089,346.53465346534654,1637.3626373626373
1650361138742.376,346.53465346534654,1717.216117216117
1650361138767.496,346.3587921847247,1794.8717948717947
1650361138768.508,346.3587921847247,1865.9340659340658
1650361138772.24,346.3587921847247,1926.007326007326
1650361138773.305,346.71069342138685,1973.6263736263736
1650361138773.546,346.3587921847247,2007.3260073260071
1650361138801.299,346.53465346534654,2024.1758241758241
1650361138802.306,346.53465346534654,2023.4432234432234
1650361138827.2542,346.71069342138685,2006.5934065934064
1650361138828.345,346.53465346534654,1975.8241758241757
1650361138830.967,346.53465346534654,1932.6007326007325
1650361138831.943,346.8869123252859,1881.3186813186812
1650361138839.585,346.8869123252859,1827.106227106227
1650361138839.774,346.53465346534654,1772.8937728937728
1650361138866.282,346.8869123252859,1720.14652014652
1650361138889.708,346.8869123252859,1671.0622710622708
1650361138890.006,346.8869123252859,1625.6410256410256
1650361138890.807,347.06331045003816,1585.3479853479853
1650361138891.043,347.06331045003816,1550.18315018315
1650361138892.014,347.23988806919357,1520.14652014652
1650361138892.3262,347.23988806919357,1495.2380952380952
1650361138921.24,347.23988806919357,1476.1904761904761
1650361138922.2368,347.41664545685927,1460.07326007326
1650361138946.269,347.41664545685927,1447.6190476190475
1650361138946.517,347.77070063694265,1437.3626373626373
1650361138947.341,347.41664545685927,1427.8388278388277
1650361138948.442,347.59358288770056,1417.5824175824175
1650361138950.81,347.77070063694265,1409.5238095238094
1650361138951.005,347.77070063694265,1400.7326007326005
1650361138980.0361,347.59358288770056,1394.139194139194
1650361139006.238,347.41664545685927,1386.8131868131868
1650361139007.078,347.06331045003816,1380.2197802197802
1650361139007.318,347.23988806919357,1375.8241758241757
1650361139008.429,346.71069342138685,1375.091575091575
1650361139011.061,346.71069342138685,1375.091575091575
1650361139018.5908,346.71069342138685,1375.091575091575
1650361139018.9,346.1831093076338,1379.4871794871794
1650361139043.489,346.53465346534654,1385.3479853479853
1650361139044.563,346.00760456273764,1393.4065934065934
1650361139071.141,346.00760456273764,1403.6630036630036
1650361139071.35,346.1831093076338,1410.989010989011
1650361139072.1099,345.4821564160972,1418.3150183150183
1650361139073.448,345.4821564160972,1422.7106227106226
1650361139074.645,345.4821564160972,1427.106227106227
1650361139099.529,345.65712838693344,1427.106227106227
1650361139099.7131,345.4821564160972,1426.3736263736262
