Timestamp,GSR,PPG
1650329630658.273,159.9795918367347,0.0
1650329630668.0142,159.9795918367347,0.0
1650329630669.1848,159.9795918367347,0.0
1650329630676.734,159.9795918367347,0.0
1650329630686.879,159.9795918367347,0.0
1650329630687.1729,159.9795918367347,0.0
1650329630715.323,159.9795918367347,0.0
1650329630716.4421,159.9795918367347,0.0
1650329630716.594,187.89208633093526,0.0
1650329630740.504,188.0724915986558,0.0
1650329630742.841,188.0724915986558,0.0
1650329630744.266,188.25324363286882,0.0
1650329630750.214,188.0724915986558,0.0
1650329630750.3892,188.25324363286882,0.0
1650329630776.674,188.25324363286882,0.0
1650329630777.844,188.25324363286882,0.0
1650329630778.0,188.43434343434345,0.0
1650329630804.115,188.61579200770342,0.0
1650329630805.3,188.43434343434345,0.0
1650329630806.5369,188.61579200770342,0.0
1650329630812.76,188.61579200770342,0.0
1650329630812.863,188.61579200770342,0.0
1650329630837.995,188.61579200770342,0.0
1650329630860.641,188.7975903614458,0.0
1650329630860.9,188.61579200770342,0.0
1650329630862.8708,188.7975903614458,0.0
1650329630864.104,188.9797395079595,0.0
1650329630865.398,188.9797395079595,0.0
1650329630892.7988,188.7975903614458,0.0
1650329630892.968,188.9797395079595,0.0
1650329630894.0762,188.9797395079595,0.0
1650329630920.279,188.9797395079595,0.0
1650329630920.5078,188.9797395079595,0.0
1650329630922.843,188.9797395079595,0.0
1650329630924.0479,188.9797395079595,0.0
1650329630925.2988,188.9797395079595,0.0
1650329630959.0571,188.7975903614458,0.0
1650329630959.2148,188.9797395079595,0.0
1650329630960.428,188.9797395079595,0.0
1650329630985.2668,188.9797395079595,0.0
1650329630985.472,188.7975903614458,0.0
1650329630986.5771,188.9797395079595,0.0
1650329630987.842,188.7975903614458,0.0
1650329630990.186,188.9797395079595,0.0
1650329630990.3481,188.7975903614458,0.0
1650329631020.346,188.9797395079595,0.0
1650329631021.577,188.9797395079595,0.0
1650329631045.316,189.16224046354418,0.0
1650329631045.5352,188.9797395079595,0.0
1650329631046.61,189.16224046354418,0.0
1650329631047.837,189.16224046354418,0.0
1650329631050.305,188.9797395079595,0.0
1650329631075.294,188.9797395079595,0.0
1650329631075.5461,188.9797395079595,0.0
1650329631076.641,189.16224046354418,0.0
1650329631104.09,188.9797395079595,0.0
1650329631104.477,188.9797395079595,0.0
1650329631105.426,188.9797395079595,0.0
1650329631106.617,189.16224046354418,0.0
1650329631113.982,188.9797395079595,0.0
1650329631114.1729,188.9797395079595,0.0
1650329631140.43,188.9797395079595,0.0
1650329631141.633,189.16224046354418,0.0
1650329631159.05,188.9797395079595,0.0
1650329631159.3298,188.7975903614458,0.0
1650329631160.394,188.9797395079595,0.0
1650329631170.312,188.7975903614458,0.0
1650329631200.354,188.9797395079595,0.0
1650329631201.4822,188.9797395079595,0.0
1650329631201.618,188.7975903614458,0.0
1650329631225.347,188.9797395079595,0.0
1650329631226.44,188.9797395079595,0.0
1650329631226.612,188.7975903614458,0.0
1650329631227.8918,188.7975903614458,0.0
1650329631230.3618,188.9797395079595,0.0
1650329631260.3308,188.9797395079595,0.0
1650329631261.467,188.61579200770342,0.0
1650329631261.6428,188.7975903614458,0.0
1650329631279.276,188.7975903614458,0.0
1650329631280.287,188.7975903614458,0.0
1650329631280.503,188.7975903614458,0.7326007326007326
1650329631282.94,188.61579200770342,0.0
1650329631292.83,188.61579200770342,0.0
1650329631326.643,188.61579200770342,0.0
1650329631327.806,188.43434343434345,0.0
1650329631327.987,188.43434343434345,0.0
1650329631339.077,188.43434343434345,0.0
1650329631340.191,188.43434343434345,0.0
1650329631340.2869,188.25324363286882,0.0
1650329631342.793,188.25324363286882,0.0
1650329631352.822,188.0724915986558,0.0
1650329631380.316,188.25324363286882,0.0
1650329631381.423,188.0724915986558,0.0
1650329631381.5051,188.0724915986558,0.0
1650329631399.094,188.0724915986558,0.0
1650329631400.217,188.0724915986558,0.0
1650329631400.347,187.89208633093526,0.0
1650329631404.1108,187.89208633093526,0.0
1650329631437.851,187.71202683277434,0.0
1650329631459.075,187.89208633093526,0.0
1650329631460.244,187.71202683277434,0.0
1650329631460.3901,187.53231211105793,0.0
1650329631462.831,187.71202683277434,0.0
1650329631463.9648,187.53231211105793,0.0
1650329631464.105,187.3529411764706,0.0
1650329631474.183,187.3529411764706,0.0
1650329631475.3662,187.17391304347828,0.0
1650329631500.3281,187.17391304347828,0.0
1650329631501.465,186.99522673031026,0.0
1650329631501.632,186.99522673031026,0.0
1650329631526.894,186.99522673031026,0.0
1650329631528.045,186.99522673031026,0.0
1650329631528.2969,186.63887565507386,0.0
1650329631530.364,186.63887565507386,0.0
1650329631575.403,186.46120894811995,0.0
1650329631575.735,186.63887565507386,0.0
1650329631576.494,186.46120894811995,0.0
1650329631576.73,186.28388017118405,0.0
1650329631577.842,186.28388017118405,0.0
1650329631585.197,186.28388017118405,0.0
1650329631585.32,185.93023255813955,0.0
1650329631592.826,186.10688836104515,0.0
1650329631620.465,186.10688836104515,0.0
1650329631621.605,185.93023255813955,0.0
1650329631621.8,185.5779251539555,0.0
1650329631642.841,185.5779251539555,0.0
1650329631644.053,185.4022716516801,0.0
1650329631645.192,185.4022716516801,0.0
1650329631645.342,185.22695035460995,0.0
1650329631655.3992,185.0519603212093,0.0
1650329631686.5881,184.87730061349694,0.0
1650329631687.829,184.87730061349694,0.0
1650329631702.811,184.70297029702974,0.0
1650329631703.086,184.52896844088556,0.0
1650329631704.05,184.35529411764708,0.0
1650329631705.1958,184.18194640338507,0.0
1650329631705.2869,184.0089243776421,0.0
1650329631732.857,184.0089243776421,0.0
1650329631734.08,183.83622712341625,0.0
1650329631762.887,183.83622712341625,0.0
1650329631763.9512,183.4918032786885,0.0
1650329631764.105,183.4918032786885,0.0
1650329631765.3142,183.32007487131492,0.0
1650329631770.2788,183.148667601683,0.0
1650329631770.463,182.97758056982715,0.0
1650329631797.8499,182.80681287914138,0.0
1650329631820.372,182.80681287914138,0.0
1650329631822.8828,182.63636363636363,0.0
1650329631824.01,182.4662319515603,0.0
1650329631824.2842,182.12691771269175,0.0
1650329631825.3938,182.29641693811072,0.0
1650329631835.261,182.12691771269175,0.0
1650329631835.451,181.7888631090487,0.0
1650329631860.525,181.7888631090487,0.0
1650329631861.691,181.7888631090487,0.0
1650329631884.094,181.28412771864876,0.0
1650329631885.186,181.28412771864876,0.0
1650329631885.34,181.28412771864876,0.0
1650329631886.564,181.1165048543689,0.0
1650329631918.973,180.9491916859122,0.0
1650329631919.137,180.7821873557914,0.0
1650329631920.278,180.61549100968188,0.0
1650329631937.8271,180.44910179640718,0.0
1650329631939.099,180.2830188679245,0.0
1650329631946.4878,180.11724137931034,0.0
1650329631946.757,179.95176848874596,0.0
1650329631977.8408,179.95176848874596,0.0
1650329632000.32,179.78659935750343,0.0
1650329632000.606,179.6217331499312,0.0
1650329632002.9011,179.4571690334402,0.0
1650329632004.132,179.6217331499312,0.0
1650329632005.261,179.4571690334402,0.0
1650329632005.465,179.12894375857337,0.0
1650329632006.587,178.96528095020557,0.0
1650329632012.832,178.96528095020557,0.0
1650329632040.3308,178.63885088919287,0.0
1650329632040.555,178.4760820045558,0.0
1650329632041.637,178.4760820045558,0.0
1650329632062.8208,178.31360946745562,0.0
1650329632063.9229,178.31360946745562,0.0
1650329632064.067,177.9895502044525,0.0
1650329632065.272,178.1514324693042,0.0
1650329632075.352,177.82796187017703,0.0
1650329632104.1108,177.82796187017703,0.0
1650329632104.425,177.66666666666666,0.0
1650329632105.385,177.66666666666666,0.0
1650329632120.3462,177.66666666666666,0.0
1650329632122.7068,177.5056637970095,0.0
1650329632122.872,177.18453188602442,0.0
1650329632124.0498,177.18453188602442,0.0
1650329632134.269,177.0244012652508,0.0
1650329632161.467,177.18453188602442,0.0
1650329632161.649,176.8645598194131,0.0
1650329632162.814,176.70500676589987,0.0
1650329632181.7578,176.70500676589987,0.0
1650329632182.938,176.54574132492112,0.0
1650329632183.969,176.38676271949572,0.0
1650329632184.138,176.2280701754386,0.0
1650329632209.12,176.0696629213483,0.0
1650329632210.27,175.91154018859453,0.0
1650329632210.499,175.91154018859453,0.0
1650329632235.401,175.75370121130553,0.0
1650329632252.837,175.5961452263559,0.0
1650329632254.066,175.5961452263559,0.0
1650329632255.22,175.28187919463087,0.0
1650329632255.378,175.28187919463087,0.0
1650329632302.834,175.28187919463087,0.0
1650329632303.936,174.9687360428763,0.0
1650329632304.052,174.81258366800537,0.0
1650329632305.351,174.81258366800537,0.0
1650329632306.522,174.65670976370933,0.0
1650329632307.881,174.5011135857461,0.0
1650329632313.997,174.34579439252337,0.0
1650329632314.178,174.34579439252337,0.0
1650329632340.334,174.1907514450867,0.0
1650329632341.451,174.03598400710797,0.0
1650329632341.609,174.03598400710797,0.0
1650329632366.901,173.72727272727275,0.0
1650329632367.954,173.72727272727275,0.0
1650329632374.021,173.57332742578646,0.0
1650329632374.213,173.41965471447546,0.0
1650329632375.308,173.41965471447546,0.0
1650329632400.347,173.26625386996906,0.0
1650329632401.5232,173.11312417145385,0.0
1650329632401.715,173.11312417145385,0.0
1650329632426.6829,172.8076753418615,0.0
1650329632427.9421,172.65535478184225,0.0
1650329632430.285,172.8076753418615,0.0
1650329632455.252,172.50330250990754,0.0
1650329632455.5,172.50330250990754,0.0
1650329632456.645,172.35151781786186,0.0
1650329632482.723,172.20000000000002,0.0
1650329632482.897,172.0487483530962,0.0
1650329632484.076,171.89776217639317,0.0
1650329632491.583,171.89776217639317,0.0
1650329632520.326,171.74704077159143,0.0
1650329632521.484,171.59658344283838,0.0
1650329632521.665,171.44638949671773,0.0
1650329632545.4668,171.44638949671773,0.0
1650329632546.489,171.29645824223877,0.0
1650329632546.717,171.1467889908257,0.0
1650329632547.893,170.99738105630732,0.0
1650329632550.354,170.99738105630732,0.0
1650329632551.467,170.99738105630732,0.0
1650329632551.646,170.84823375490626,0.0
1650329632580.376,170.69934640522877,0.0
1650329632581.6392,170.55071832825428,0.0
1650329632604.056,170.55071832825428,0.0
1650329632604.342,170.2542372881356,0.0
1650329632605.336,170.2542372881356,0.0
1650329632606.6,170.2542372881356,0.0
1650329632613.969,170.10638297872342,0.0
1650329632614.1602,169.9587852494577,0.0
1650329632640.547,169.9587852494577,0.0
1650329632641.607,169.8114434330299,0.0
1650329632662.714,169.8114434330299,0.0
1650329632662.864,169.66435686444345,0.0
1650329632664.0488,169.51752488100388,0.0
1650329632665.284,169.51752488100388,0.0
1650329632694.238,169.51752488100388,0.0
1650329632694.385,169.22462203023755,0.0
1650329632694.422,169.22462203023755,0.0
1650329632720.3928,169.22462203023755,0.0
1650329632722.845,169.22462203023755,0.0
1650329632723.023,169.07854984894257,0.0
1650329632724.103,169.07854984894257,0.0
1650329632730.4448,169.07854984894257,0.0
1650329632756.4458,168.9327296248383,0.0
1650329632757.766,168.78716070659198,0.0
1650329632757.9192,168.64184244511407,0.0
1650329632782.823,168.78716070659198,0.0
1650329632783.9229,168.64184244511407,0.0
1650329632783.999,168.49677419354836,0.0
1650329632787.81,168.49677419354836,0.0
1650329632790.305,168.35195530726256,0.0
1650329632819.139,168.35195530726256,0.0
1650329632819.4111,168.06306306306305,0.0
1650329632821.874,168.20738514383854,0.0
1650329632840.3599,168.20738514383854,0.0
1650329632842.697,168.20738514383854,0.0
1650329632842.8599,168.06306306306305,0.0
1650329632844.038,168.06306306306305,0.0
1650329632854.135,168.06306306306305,0.0
1650329632882.7368,168.06306306306305,0.0
1650329632882.9219,167.9189884269181,0.0
1650329632884.073,167.9189884269181,0.0
1650329632907.9531,168.06306306306305,0.0
1650329632910.2012,167.9189884269181,0.0
1650329632910.368,167.77516059957173,0.0
1650329632911.617,167.77516059957173,0.0
1650329632912.78,167.77516059957173,0.0
1650329632939.085,167.6315789473684,0.0
1650329632940.222,167.48824283881999,0.0
1650329632940.394,167.6315789473684,0.0
1650329632960.681,167.6315789473684,0.0
1650329632962.7322,167.6315789473684,0.0
1650329632962.917,167.6315789473684,0.0
1650329632967.9128,167.48824283881999,0.0
1650329632994.097,167.3451516445963,0.0
1650329632995.421,167.48824283881999,0.0
1650329633021.482,167.3451516445963,0.0
1650329633021.675,167.48824283881999,0.0
1650329633022.805,167.3451516445963,0.0
1650329633023.9329,167.48824283881999,0.0
1650329633024.059,167.3451516445963,0.0
1650329633049.115,167.3451516445963,0.0
1650329633050.323,167.3451516445963,0.0
1650329633076.578,167.48824283881999,0.0
1650329633077.781,167.3451516445963,0.0
1650329633077.906,167.48824283881999,0.0
1650329633086.701,167.48824283881999,0.0
1650329633087.858,167.48824283881999,0.0
1650329633088.164,167.48824283881999,0.0
1650329633091.687,167.3451516445963,0.0
1650329633130.338,167.48824283881999,0.0
1650329633131.607,167.48824283881999,0.0
1650329633142.7769,167.48824283881999,0.0
1650329633142.9902,167.48824283881999,0.0
1650329633144.1208,167.6315789473684,0.0
1650329633145.285,167.6315789473684,0.0
1650329633145.623,167.48824283881999,0.0
1650329633155.326,167.6315789473684,0.0
1650329633180.457,167.6315789473684,0.0
1650329633181.66,167.77516059957173,0.0
1650329633200.237,167.6315789473684,0.0
1650329633200.4211,167.6315789473684,0.0
1650329633202.812,167.77516059957173,0.0
1650329633203.9521,167.77516059957173,0.0
1650329633204.121,167.6315789473684,0.0
1650329633232.976,167.77516059957173,0.0
1650329633234.0952,167.77516059957173,0.0
1650329633262.835,167.6315789473684,0.0
1650329633263.9502,167.77516059957173,0.0
1650329633264.108,167.9189884269181,0.0
1650329633267.841,167.9189884269181,0.0
1650329633270.187,168.06306306306305,0.0
1650329633270.314,167.9189884269181,0.0
1650329633300.3398,168.06306306306305,0.0
1650329633301.563,168.06306306306305,0.0
1650329633321.7012,168.20738514383854,0.0
1650329633322.9001,168.20738514383854,0.0
1650329633323.098,168.20738514383854,0.0
1650329633324.159,168.35195530726256,0.0
1650329633334.111,168.20738514383854,0.0
1650329633334.31,168.20738514383854,0.0
1650329633366.606,168.35195530726256,0.0
1650329633367.854,168.49677419354836,0.0
1650329633377.886,168.35195530726256,0.0
1650329633379.05,168.20738514383854,0.0
1650329633379.232,168.35195530726256,0.0
1650329633380.336,168.49677419354836,0.0
1650329633395.254,168.35195530726256,0.0
1650329633395.4338,168.49677419354836,0.0
1650329633434.109,168.64184244511407,0.0
1650329633435.3572,168.64184244511407,0.0
1650329633436.623,168.78716070659198,0.0
1650329633437.709,168.64184244511407,0.0
1650329633437.874,168.78716070659198,0.0
1650329633452.823,168.78716070659198,0.0
1650329633486.4841,168.9327296248383,0.0
1650329633486.6829,168.9327296248383,0.0
1650329633488.455,169.07854984894257,0.0
1650329633499.084,169.07854984894257,0.0
1650329633500.318,169.22462203023755,0.0
1650329633502.675,169.07854984894257,0.0
1650329633502.819,169.22462203023755,0.0
1650329633512.944,169.37094682230867,0.0
1650329633540.227,169.37094682230867,0.0
1650329633540.4229,169.37094682230867,0.0
1650329633541.568,169.51752488100388,0.0
1650329633559.23,169.51752488100388,0.0
1650329633560.3381,169.51752488100388,0.0
1650329633560.49,169.51752488100388,0.0
1650329633575.353,169.51752488100388,0.0
1650329633601.753,169.8114434330299,0.0
1650329633602.8691,169.8114434330299,0.0
1650329633603.115,169.8114434330299,0.0
1650329633622.8381,169.9587852494577,0.0
1650329633624.0671,169.9587852494577,0.0
1650329633625.167,170.10638297872342,20.51282051282051
1650329633625.291,170.10638297872342,103.29670329670328
1650329633626.552,170.2542372881356,206.59340659340657
1650329633654.231,170.40234884732496,312.8205128205128
1650329633655.258,170.55071832825428,413.18681318681314
1650329633655.503,170.55071832825428,504.7619047619047
1650329633681.583,170.69934640522877,585.3479853479853
1650329633682.814,170.99738105630732,655.6776556776556
1650329633684.0461,170.99738105630732,715.018315018315
1650329633685.1821,171.1467889908257,764.8351648351647
1650329633685.3381,171.29645824223877,802.9304029304029
1650329633695.4702,171.29645824223877,830.7692307692307
1650329633723.98,171.59658344283838,850.5494505494505
1650329633724.172,171.59658344283838,865.9340659340659
1650329633725.352,171.74704077159143,878.3882783882783
1650329633740.377,171.89776217639317,898.9010989010989
1650329633742.9048,171.89776217639317,937.7289377289377
1650329633752.7512,172.0487483530962,1006.5934065934065
1650329633752.947,172.20000000000002,1115.018315018315
1650329633780.343,172.50330250990754,1267.3992673992673
1650329633781.458,172.65535478184225,1461.5384615384614
1650329633781.6018,172.8076753418615,1692.3076923076922
1650329633804.108,172.96026490066225,1948.7179487179485
1650329633805.294,173.11312417145385,2217.5824175824173
1650329633806.4858,173.11312417145385,2482.0512820512818
1650329633806.798,173.26625386996906,2728.205128205128
1650329633814.087,173.26625386996906,2783.8827838827838
1650329633840.343,173.41965471447546,2783.8827838827838
1650329633841.647,173.57332742578646,2783.150183150183
1650329633841.834,173.57332742578646,2784.6153846153843
1650329633860.354,173.72727272727275,2783.8827838827838
1650329633862.8062,173.88149134487352,2783.8827838827838
1650329633864.037,174.03598400710797,2783.8827838827838
1650329633897.81,174.03598400710797,2784.6153846153843
1650329633897.9858,174.03598400710797,2784.6153846153843
1650329633919.096,174.1907514450867,2764.8351648351645
1650329633920.284,174.34579439252337,2665.201465201465
1650329633920.4568,174.1907514450867,2537.7289377289376
1650329633922.962,174.34579439252337,2397.069597069597
1650329633924.095,174.5011135857461,2256.4102564102564
1650329633925.3298,174.5011135857461,2119.4139194139193
1650329633952.792,174.5011135857461,1993.4065934065932
1650329633953.032,174.65670976370933,1879.8534798534797
1650329633954.078,174.9687360428763,1781.6849816849815
1650329633979.115,174.9687360428763,1698.9010989010987
1650329633979.312,174.9687360428763,1632.2344322344322
1650329633980.361,174.9687360428763,1578.021978021978
1650329633987.852,175.12516763522575,1533.3333333333333
1650329633995.25,175.12516763522575,1498.168498168498
1650329633995.434,175.12516763522575,1467.3992673992673
1650329634020.937,175.12516763522575,1437.3626373626373
1650329634021.528,175.28187919463087,1405.128205128205
1650329634021.7642,175.43887147335423,1372.161172161172
1650329634039.085,175.28187919463087,1342.8571428571427
1650329634040.322,175.43887147335423,1313.5531135531135
1650329634042.802,175.43887147335423,1287.179487179487
1650329634079.8691,175.5961452263559,1265.2014652014652
1650329634080.094,175.43887147335423,1249.084249084249
1650329634080.304,175.5961452263559,1238.095238095238
1650329634100.313,175.75370121130553,1235.164835164835
1650329634100.519,175.75370121130553,1238.8278388278388
1650329634102.9292,175.75370121130553,1249.8168498168498
1650329634104.269,175.75370121130553,1265.2014652014652
1650329634105.419,175.75370121130553,1284.2490842490843
1650329634115.231,175.91154018859453,1303.2967032967033
1650329634115.4011,175.75370121130553,1321.6117216117216
1650329634140.399,175.91154018859453,1338.4615384615383
1650329634141.734,176.0696629213483,1350.18315018315
1650329634162.7231,175.91154018859453,1356.0439560439559
1650329634162.911,175.91154018859453,1353.113553113553
1650329634164.052,176.0696629213483,1342.1245421245421
1650329634165.2998,176.0696629213483,1326.7399267399267
1650329634175.3508,176.0696629213483,1306.9597069597069
1650329634200.23,175.91154018859453,1284.2490842490843
1650329634200.419,176.0696629213483,1258.6080586080586
1650329634201.562,176.2280701754386,1231.5018315018315
1650329634230.245,176.2280701754386,1203.6630036630036
1650329634230.4548,176.2280701754386,1177.2893772893772
1650329634231.596,176.2280701754386,1153.8461538461538
1650329634232.802,176.2280701754386,1132.6007326007325
1650329634260.334,176.2280701754386,1115.7509157509157
1650329634261.451,176.2280701754386,1104.7619047619046
1650329634261.627,176.2280701754386,1095.2380952380952
1650329634286.675,176.38676271949572,1089.3772893772893
1650329634287.966,176.38676271949572,1084.2490842490843
1650329634288.2239,176.38676271949572,1081.3186813186812
1650329634290.3372,176.38676271949572,1079.8534798534797
1650329634291.6301,176.54574132492112,1080.5860805860805
1650329634320.314,176.54574132492112,1078.3882783882784
1650329634320.506,176.38676271949572,1076.1904761904761
1650329634321.7139,176.54574132492112,1072.5274725274724
1650329634346.619,176.70500676589987,1071.7948717948718
1650329634347.709,176.70500676589987,1071.7948717948718
1650329634347.861,176.70500676589987,1073.9926739926739
1650329634350.307,176.70500676589987,1078.3882783882784
1650329634351.554,176.70500676589987,1086.4468864468863
1650329634381.691,176.70500676589987,1094.5054945054944
1650329634381.895,176.70500676589987,1101.8315018315018
1650329634382.005,176.70500676589987,1108.4249084249084
1650329634406.658,176.8645598194131,1115.7509157509157
1650329634407.841,176.8645598194131,1123.8095238095236
1650329634407.9448,176.8645598194131,1132.6007326007325
1650329634412.944,176.8645598194131,1140.6593406593406
1650329634414.091,177.0244012652508,1147.985347985348
1650329634441.4822,176.8645598194131,1154.5787545787546
1650329634441.662,176.8645598194131,1159.7069597069597
1650329634442.811,176.8645598194131,1161.904761904762
1650329634444.062,177.0244012652508,1162.6373626373625
1650329634470.21,177.0244012652508,1161.904761904762
1650329634470.336,177.0244012652508,1161.1721611721612
1650329634471.595,176.8645598194131,1159.7069597069597
1650329634500.497,177.18453188602442,1158.974358974359
1650329634501.646,176.8645598194131,1156.7765567765566
1650329634526.4731,177.0244012652508,1150.18315018315
1650329634526.683,177.0244012652508,1141.3919413919414
1650329634527.8262,177.18453188602442,1131.8681318681317
1650329634530.195,177.18453188602442,1119.4139194139193
1650329634530.3281,177.18453188602442,1106.227106227106
1650329634531.575,177.18453188602442,1091.5750915750914
1650329634560.313,177.0244012652508,1078.3882783882784
1650329634561.426,177.34495246717972,1065.2014652014652
1650329634561.501,177.34495246717972,1052.7472527472528
1650329634587.894,177.34495246717972,1041.7582417582416
1650329634595.3901,177.5056637970095,1032.967032967033
1650329634620.2048,177.34495246717972,1026.3736263736264
1650329634620.3152,177.18453188602442,1019.7802197802197
1650329634621.614,177.34495246717972,1013.9194139194138
1650329634646.574,177.5056637970095,1012.4542124542124
1650329634647.794,177.5056637970095,1014.6520146520146
1650329634650.165,177.34495246717972,1019.7802197802197
1650329634650.296,177.5056637970095,1027.8388278388277
1650329634651.5132,177.34495246717972,1037.3626373626373
1650329634652.6511,177.5056637970095,1046.1538461538462
1650329634652.729,177.5056637970095,1054.9450549450548
1650329634680.413,177.5056637970095,1060.8058608058607
1650329634681.623,177.5056637970095,1065.2014652014652
1650329634706.685,177.66666666666666,1067.3992673992673
1650329634707.8608,177.66666666666666,1065.9340659340658
1650329634708.001,177.66666666666666,1060.8058608058607
1650329634712.829,177.66666666666666,1057.142857142857
1650329634714.0168,177.66666666666666,1057.8754578754579
1650329634714.248,177.5056637970095,1067.3992673992673
1650329634740.329,177.66666666666666,1087.179487179487
1650329634741.573,177.5056637970095,1131.8681318681317
1650329634766.785,177.82796187017703,1205.8608058608058
1650329634767.7869,177.66666666666666,1317.9487179487178
1650329634767.969,177.66666666666666,1468.8644688644688
1650329634771.642,177.82796187017703,1653.4798534798533
1650329634800.3071,177.82796187017703,1868.8644688644688
1650329634800.499,177.82796187017703,2099.6336996336995
1650329634801.575,177.66666666666666,2334.065934065934
1650329634826.577,177.82796187017703,2556.043956043956
1650329634827.7039,177.82796187017703,2754.5787545787543
1650329634827.847,177.82796187017703,2784.6153846153843
1650329634830.2961,177.82796187017703,2784.6153846153843
1650329634831.429,177.82796187017703,2783.8827838827838
1650329634831.5688,177.9895502044525,2783.150183150183
1650329634832.7998,177.82796187017703,2785.3479853479853
1650329634860.3489,177.9895502044525,2784.6153846153843
1650329634861.601,177.9895502044525,2783.8827838827838
1650329634890.269,177.9895502044525,2783.8827838827838
1650329634890.461,177.82796187017703,2703.296703296703
1650329634891.617,177.9895502044525,2571.428571428571
1650329634892.855,177.9895502044525,2414.6520146520147
1650329634893.965,177.9895502044525,2251.2820512820513
1650329634894.1099,177.9895502044525,2090.10989010989
1650329634920.328,177.9895502044525,1939.9267399267399
1650329634921.601,178.1514324693042,1806.5934065934064
1650329634946.6008,178.1514324693042,1691.5750915750914
1650329634947.747,178.1514324693042,1598.5347985347985
1650329634947.953,177.9895502044525,1523.8095238095236
1650329634959.089,178.1514324693042,1469.5970695970695
1650329634960.18,177.9895502044525,1430.03663003663
1650329634960.316,177.82796187017703,1402.197802197802
1650329634970.377,177.9895502044525,1375.8241758241757
1650329634976.64,177.9895502044525,1348.7179487179487
1650329635002.8638,177.9895502044525,1319.4139194139193
1650329635004.028,177.82796187017703,1287.179487179487
1650329635004.297,177.82796187017703,1253.4798534798533
1650329635029.104,177.9895502044525,1221.245421245421
1650329635030.284,177.66666666666666,1194.8717948717947
1650329635030.499,177.5056637970095,1171.4285714285713
1650329635044.074,177.66666666666666,1154.5787545787546
1650329635045.307,177.66666666666666,1146.5201465201465
1650329635070.328,177.66666666666666,1149.4505494505493
1650329635071.442,177.5056637970095,1163.3699633699632
1650329635071.542,177.5056637970095,1183.8827838827838
1650329635096.618,177.5056637970095,1211.7216117216117
1650329635097.805,177.34495246717972,1243.956043956044
1650329635097.939,177.18453188602442,1277.6556776556777
1650329635098.0598,177.18453188602442,1306.9597069597069
1650329635122.8398,177.34495246717972,1331.135531135531
1650329635123.027,177.0244012652508,1351.6483516483515
1650329635123.111,177.0244012652508,1363.3699633699632
1650329635124.0662,176.8645598194131,1367.7655677655678
1650329635149.129,176.8645598194131,1364.102564102564
1650329635150.3699,176.70500676589987,1354.5787545787546
1650329635150.779,176.54574132492112,1339.9267399267399
1650329635162.8398,176.38676271949572,1317.216117216117
1650329635164.0378,176.38676271949572,1289.3772893772893
1650329635190.352,176.38676271949572,1258.6080586080586
1650329635191.555,176.2280701754386,1225.6410256410256
1650329635191.691,175.91154018859453,1190.4761904761904
1650329635217.525,175.91154018859453,1158.974358974359
1650329635217.764,175.91154018859453,1129.6703296703297
1650329635217.846,175.75370121130553,1101.8315018315018
1650329635242.961,175.75370121130553,1076.923076923077
1650329635244.1558,175.5961452263559,1057.142857142857
1650329635272.833,175.5961452263559,1041.7582417582416
1650329635273.959,175.28187919463087,1030.7692307692307
1650329635274.085,175.28187919463087,1022.7106227106226
1650329635285.465,175.28187919463087,1018.3150183150183
1650329635287.7642,175.12516763522575,1015.3846153846154
1650329635287.9382,174.81258366800537,1015.3846153846154
1650329635312.837,174.81258366800537,1016.8498168498168
1650329635314.064,174.65670976370933,1019.7802197802197
1650329635340.38,174.5011135857461,1021.978021978022
1650329635341.4878,174.34579439252337,1025.6410256410256
1650329635341.671,174.34579439252337,1029.3040293040292
1650329635345.36,174.1907514450867,1035.8974358974358
1650329635347.717,174.03598400710797,1044.6886446886447
1650329635347.881,173.72727272727275,1054.212454212454
1650329635372.8389,173.72727272727275,1065.2014652014652
1650329635374.054,173.57332742578646,1076.923076923077
1650329635397.862,173.41965471447546,1087.9120879120878
1650329635400.1948,173.11312417145385,1100.3663003663003
1650329635400.366,173.11312417145385,1115.7509157509157
1650329635401.5579,172.96026490066225,1133.3333333333333
1650329635402.752,172.8076753418615,1151.6483516483515
1650329635402.988,172.50330250990754,1167.032967032967
1650329635404.0798,172.35151781786186,1179.4871794871794
1650329635430.344,172.0487483530962,1189.0109890109889
1650329635456.573,171.89776217639317,1189.7435897435896
1650329635456.835,171.74704077159143,1186.080586080586
1650329635457.1062,171.44638949671773,1179.4871794871794
1650329635457.85,171.44638949671773,1169.9633699633698
1650329635464.0542,171.1467889908257,1156.0439560439559
1650329635464.204,170.99738105630732,1139.194139194139
1650329635494.129,170.69934640522877,1117.9487179487178
1650329635495.341,170.55071832825428,1097.4358974358975
1650329635512.909,170.40234884732496,1077.6556776556777
1650329635513.9202,170.10638297872342,1060.8058608058607
1650329635514.024,169.9587852494577,1046.1538461538462
1650329635515.49,169.66435686444345,1035.8974358974358
1650329635522.712,169.66435686444345,1024.9084249084249
1650329635522.9001,169.37094682230867,1016.8498168498168
1650329635550.508,169.22462203023755,1010.9890109890109
1650329635551.866,169.07854984894257,1005.8608058608058
1650329635576.603,168.9327296248383,1001.4652014652014
1650329635577.713,168.64184244511407,1000.7326007326006
1650329635577.8699,168.49677419354836,1002.9304029304028
1650329635580.3389,168.35195530726256,1008.7912087912088
1650329635581.431,168.06306306306305,1019.0476190476189
1650329635581.551,167.77516059957173,1030.7692307692307
1650329635616.6,167.6315789473684,1041.7582417582416
1650329635617.809,167.6315789473684,1051.2820512820513
1650329635629.088,167.3451516445963,1061.5384615384614
1650329635630.1938,167.202304737516,1071.062271062271
1650329635630.3142,167.0597014925373,1080.5860805860805
1650329635632.7952,166.91734128674904,1086.4468864468863
1650329635647.767,166.63334751169714,1089.3772893772893
1650329635647.954,166.35031847133757,1089.3772893772893
1650329635672.831,166.2091641917692,1086.4468864468863
1650329635674.0972,166.2091641917692,1084.2490842490843
1650329635700.228,165.92757306226176,1084.2490842490843
1650329635701.437,165.78713499788404,1085.7142857142856
1650329635701.585,165.64693446088793,1093.040293040293
1650329635702.803,165.50697084917616,1113.5531135531135
1650329635707.729,165.2277520033741,1155.3113553113553
1650329635707.894,165.2277520033741,1229.3040293040292
1650329635739.1401,164.94947368421052,1341.3919413919414
1650329635740.351,164.81068573832562,1494.5054945054944
1650329635754.021,164.672131147541,1682.051282051282
1650329635754.252,164.39571968107427,1897.4358974358972
1650329635754.376,164.25786163522014,2128.205128205128
1650329635761.585,164.12023460410558,2358.974358974359
1650329635790.236,164.12023460410558,2578.7545787545787
1650329635790.439,163.8456712672522,2771.428571428571
1650329635791.5708,163.8456712672522,2783.150183150183
1650329635815.346,163.57202505219206,2783.8827838827838
1650329635816.4648,163.4355444305382,2784.6153846153843
1650329635816.639,163.16326530612244,2784.6153846153843
1650329635817.81,163.16326530612244,2783.8827838827838
1650329635821.589,163.02746566791512,2783.8827838827838
1650329635847.744,162.75654341503946,2785.3479853479853
1650329635847.939,162.6214196762142,2778.7545787545787
1650329635874.177,162.75654341503946,2688.6446886446884
1650329635875.4412,162.6214196762142,2555.3113553113553
1650329635876.649,162.35184417737258,2400.7326007326005
1650329635877.881,162.21739130434784,2241.7582417582416
1650329635878.109,162.08316094331818,2087.179487179487
1650329635902.8398,162.08316094331818,1947.9853479853477
1650329635903.971,161.9491525423729,1828.5714285714284
1650329635904.112,161.81536555142503,1729.6703296703295
1650329635932.837,161.81536555142503,1651.2820512820513
1650329635934.0562,161.68179942220388,1593.4065934065934
1650329635935.178,161.68179942220388,1554.5787545787546
1650329635936.432,161.41532756489494,1532.6007326007325
1650329635936.586,161.41532756489494,1517.216117216117
1650329635947.845,161.28242074927954,1508.4249084249084
1650329635972.851,161.28242074927954,1498.168498168498
1650329635973.1191,161.01726263871765,1484.2490842490843
1650329635995.353,161.01726263871765,1460.8058608058607
1650329635996.598,160.88501026694047,1430.03663003663
1650329635997.701,160.88501026694047,1390.4761904761904
1650329636000.24,160.62115621156212,1347.985347985348
1650329636000.49,160.62115621156212,1306.227106227106
1650329636025.313,160.48955346169603,1267.3992673992673
1650329636026.437,160.48955346169603,1234.4322344322343
1650329636026.592,160.48955346169603,1212.4542124542124
1650329636053.983,160.48955346169603,1200.0
1650329636054.228,160.09603596240296,1198.5347985347985
1650329636060.3572,160.2269938650307,1205.128205128205
1650329636061.445,159.96529195590037,1219.047619047619
1650329636061.6099,160.09603596240296,1239.5604395604396
1650329636096.673,160.09603596240296,1263.7362637362637
1650329636097.774,159.96529195590037,1288.6446886446886
1650329636098.0461,159.83476132190944,1315.018315018315
1650329636109.075,159.83476132190944,1337.7289377289376
1650329636110.3289,159.70444353852426,1356.7765567765566
1650329636112.8162,159.57433808553972,1368.4981684981683
1650329636122.8381,159.57433808553972,1369.230769230769
1650329636122.992,159.57433808553972,1361.904761904762
1650329636150.348,159.57433808553972,1347.2527472527472
1650329636151.456,159.57433808553972,1326.007326007326
1650329636151.615,159.314762098414,1301.098901098901
1650329636172.792,159.314762098414,1271.7948717948716
1650329636173.0298,159.314762098414,1243.2234432234432
1650329636173.9968,159.314762098414,1216.8498168498168
1650329636174.16,159.18529053230395,1191.9413919413919
1650329636202.8452,159.18529053230395,1167.032967032967
1650329636204.087,159.18529053230395,1145.054945054945
1650329636232.736,158.9269776876268,1126.7399267399267
1650329636232.929,158.9269776876268,1112.087912087912
1650329636234.069,158.9269776876268,1096.7032967032967
1650329636235.282,158.9269776876268,1081.3186813186812
1650329636236.414,158.9269776876268,1067.3992673992673
1650329636247.708,158.66950182260027,1056.4102564102564
1650329636247.872,158.66950182260027,1045.4212454212454
1650329636274.097,158.79813538710988,1033.6996336996335
1650329636275.302,158.79813538710988,1023.4432234432234
1650329636275.5562,158.54107648725216,1013.1868131868131
1650329636292.833,158.66950182260027,1004.3956043956043
1650329636294.042,158.54107648725216,995.6043956043956
1650329636304.06,158.41285887585929,990.4761904761904
1650329636330.242,158.41285887585929,986.8131868131868
1650329636330.4492,158.41285887585929,984.6153846153845
1650329636331.571,158.41285887585929,984.6153846153845
1650329636360.269,158.41285887585929,987.5457875457874
1650329636360.424,158.2848484848485,991.2087912087911
1650329636361.6072,158.2848484848485,996.3369963369963
1650329636362.8489,158.2848484848485,1002.9304029304028
1650329636364.072,158.1570448122729,1011.7216117216117
1650329636388.986,158.1570448122729,1020.5128205128204
1650329636389.173,158.02944735780554,1029.3040293040292
1650329636390.328,158.1570448122729,1040.2930402930401
1650329636410.2932,158.1570448122729,1049.8168498168498
1650329636410.4668,158.02944735780554,1060.07326007326
1650329636412.863,157.90205562273275,1068.8644688644688
1650329636414.0461,157.90205562273275,1076.923076923077
1650329636442.954,157.90205562273275,1079.120879120879
1650329636444.063,157.77486910994762,1079.8534798534797
1650329636444.199,157.77486910994762,1077.6556776556777
1650329636469.105,157.64788732394365,1072.5274725274724
1650329636470.194,157.77486910994762,1064.4688644688645
1650329636470.312,157.52110977080818,1057.142857142857
1650329636477.856,157.52110977080818,1052.014652014652
1650329636485.3042,157.39453595821612,1049.8168498168498
1650329636510.221,157.52110977080818,1048.3516483516482
1650329636510.391,157.26816539542352,1046.1538461538462
1650329636511.577,157.26816539542352,1043.956043956044
1650329636536.692,157.26816539542352,1041.0256410256409
1650329636537.835,157.39453595821612,1038.095238095238
1650329636538.141,157.26816539542352,1038.095238095238
1650329636542.9338,157.26816539542352,1038.8278388278388
1650329636544.075,157.26816539542352,1038.8278388278388
1650329636570.2131,157.26816539542352,1038.095238095238
1650329636571.534,157.26816539542352,1036.6300366300366
1650329636571.759,157.26816539542352,1034.4322344322343
1650329636596.607,157.26816539542352,1032.2344322344322
1650329636597.698,157.39453595821612,1028.5714285714284
1650329636597.8032,157.14199759326112,1025.6410256410256
1650329636602.8071,157.26816539542352,1022.7106227106226
1650329636604.058,157.26816539542352,1017.5824175824175
1650329636630.248,157.14199759326112,1013.1868131868131
1650329636630.445,157.26816539542352,1010.2564102564102
1650329636631.676,157.39453595821612,1009.5238095238094
1650329636656.6,157.39453595821612,1017.5824175824175
1650329636657.6992,157.39453595821612,1042.4908424908424
1650329636657.811,157.39453595821612,1092.3076923076922
1650329636664.0461,157.52110977080818,1173.6263736263736
1650329636665.353,157.52110977080818,1292.3076923076922
1650329636690.237,157.52110977080818,1448.3516483516482
1650329636690.422,157.52110977080818,1636.6300366300366
1650329636715.3909,157.64788732394365,1849.084249084249
1650329636716.629,157.64788732394365,2072.5274725274726
1650329636717.8992,157.52110977080818,2293.040293040293
1650329636718.098,157.64788732394365,2490.842490842491
1650329636720.386,157.77486910994762,2659.3406593406594
1650329636756.635,157.77486910994762,2783.8827838827838
1650329636757.812,157.77486910994762,2783.8827838827838
1650329636774.005,157.77486910994762,2784.6153846153843
1650329636774.239,157.90205562273275,2783.8827838827838
1650329636775.355,157.90205562273275,2783.8827838827838
1650329636776.4312,158.02944735780554,2756.7765567765564
1650329636776.553,158.02944735780554,2666.6666666666665
1650329636782.792,158.1570448122729,2539.194139194139
1650329636808.0698,158.1570448122729,2389.010989010989
1650329636832.71,158.2848484848485,2227.838827838828
1650329636833.886,158.2848484848485,2067.399267399267
1650329636833.942,158.2848484848485,1912.8205128205127
1650329636847.9531,158.2848484848485,1770.6959706959706
1650329636872.739,158.41285887585929,1643.956043956044
1650329636872.926,158.41285887585929,1538.4615384615383
1650329636874.052,158.54107648725216,1456.4102564102564
1650329636900.553,158.54107648725216,1395.6043956043954
1650329636901.468,158.66950182260027,1354.5787545787546
1650329636901.629,158.66950182260027,1328.937728937729
1650329636902.7969,158.66950182260027,1314.2857142857142
1650329636904.2449,158.79813538710988,1305.4945054945053
1650329636905.253,158.79813538710988,1298.168498168498
1650329636905.469,158.79813538710988,1289.3772893772893
1650329636907.825,158.9269776876268,1276.1904761904761
1650329636932.827,158.9269776876268,1257.142857142857
1650329636933.9758,159.18529053230395,1232.967032967033
1650329636960.223,159.05602923264314,1206.5934065934066
1650329636960.402,159.18529053230395,1180.2197802197802
1650329636961.565,159.18529053230395,1157.5091575091574
1650329636962.737,159.18529053230395,1141.3919413919414
1650329636962.915,159.18529053230395,1134.065934065934
1650329636988.004,159.44444444444446,1138.4615384615383
1650329637012.814,159.44444444444446,1149.4505494505493
1650329637013.901,159.57433808553972,1169.230769230769
1650329637016.4248,159.44444444444446,1196.3369963369962
1650329637016.546,159.57433808553972,1227.8388278388277
1650329637017.811,159.70444353852426,1261.5384615384614
1650329637020.231,159.57433808553972,1293.7728937728937
1650329637020.4338,159.83476132190944,1319.4139194139193
1650329637046.856,159.83476132190944,1340.6593406593406
1650329637048.148,159.96529195590037,1356.0439560439559
1650329637072.721,159.96529195590037,1367.032967032967
1650329637073.911,159.96529195590037,1370.6959706959706
1650329637074.043,160.09603596240296,1364.8351648351647
1650329637075.286,160.09603596240296,1356.0439560439559
1650329637082.675,160.09603596240296,1342.1245421245421
1650329637082.939,160.09603596240296,1322.3443223443223
1650329637109.1052,160.2269938650307,1297.4358974358975
1650329637110.3088,160.35816618911176,1272.5274725274724
1650329637132.7778,160.35816618911176,1246.153846153846
1650329637134.007,160.35816618911176,1221.245421245421
1650329637134.1091,160.48955346169603,1199.2673992673992
1650329637135.3608,160.48955346169603,1178.021978021978
1650329637145.312,160.62115621156212,1156.7765567765566
1650329637145.576,160.48955346169603,1135.5311355311355
1650329637170.341,160.75297496922445,1115.018315018315
1650329637171.61,160.75297496922445,1096.7032967032967
1650329637196.517,160.75297496922445,1079.8534798534797
1650329637196.767,160.88501026694047,1066.6666666666665
1650329637197.798,160.88501026694047,1053.4798534798533
1650329637200.35,160.88501026694047,1043.956043956044
1650329637230.303,161.01726263871765,1038.8278388278388
1650329637230.52,160.88501026694047,1037.3626373626373
1650329637231.564,161.01726263871765,1035.164835164835
1650329637255.2249,161.14973262032086,1032.2344322344322
1650329637255.3699,161.14973262032086,1026.3736263736264
1650329637256.5679,161.01726263871765,1024.1758241758241
1650329637257.8298,161.14973262032086,1022.7106227106226
1650329637282.9338,161.28242074927954,1027.106227106227
1650329637283.207,161.28242074927954,1033.6996336996335
1650329637284.1948,161.28242074927954,1043.2234432234432
1650329637309.0962,161.41532756489494,1053.4798534798533
1650329637310.315,161.41532756489494,1063.7362637362637
1650329637320.2888,161.28242074927954,1075.4578754578754
1650329637321.643,161.41532756489494,1085.7142857142856
1650329637321.843,161.41532756489494,1095.970695970696
1650329637322.906,161.41532756489494,1105.4945054945053
1650329637350.238,161.54845360824743,1115.018315018315
1650329637350.4119,161.41532756489494,1124.5421245421244
1650329637351.554,161.54845360824743,1131.135531135531
1650329637376.5881,161.54845360824743,1137.7289377289376
1650329637377.81,161.54845360824743,1143.5897435897434
1650329637378.0652,161.54845360824743,1149.4505494505493
1650329637381.609,161.41532756489494,1153.113553113553
1650329637382.8271,161.41532756489494,1152.3809523809523
1650329637409.043,161.14973262032086,1148.7179487179487
1650329637409.238,161.28242074927954,1142.1245421245421
1650329637410.347,161.41532756489494,1134.065934065934
1650329637430.356,161.41532756489494,1126.007326007326
1650329637432.6938,161.28242074927954,1119.4139194139193
1650329637433.919,161.28242074927954,1109.1575091575091
1650329637434.0588,161.28242074927954,1101.098901098901
1650329637463.011,161.28242074927954,1097.4358974358975
1650329637464.1572,161.28242074927954,1098.168498168498
1650329637464.291,161.28242074927954,1109.1575091575091
1650329637489.086,161.28242074927954,1134.7985347985348
1650329637490.312,161.14973262032086,1186.080586080586
1650329637500.388,161.28242074927954,1267.3992673992673
1650329637501.61,161.14973262032086,1386.8131868131868
1650329637501.82,161.14973262032086,1539.9267399267399
1650329637537.854,161.01726263871765,1718.6813186813185
1650329637538.9668,161.01726263871765,1915.7509157509155
1650329637539.15,160.88501026694047,2118.6813186813183
1650329637554.201,160.88501026694047,2312.0879120879117
1650329637555.384,160.88501026694047,2486.4468864468863
1650329637556.569,160.88501026694047,2629.304029304029
1650329637562.767,160.62115621156212,2735.5311355311355
1650329637563.0469,160.75297496922445,2784.6153846153843
1650329637587.847,160.62115621156212,2783.8827838827838
1650329637613.991,160.62115621156212,2772.8937728937726
1650329637614.1729,160.48955346169603,2712.8205128205127
1650329637615.302,160.48955346169603,2616.8498168498168
1650329637616.538,160.35816618911176,2493.7728937728934
1650329637622.7441,160.35816618911176,2354.5787545787543
1650329637623.9878,160.2269938650307,2205.8608058608056
1650329637624.187,159.96529195590037,2056.4102564102564
1650329637650.4841,159.96529195590037,1911.3553113553112
1650329637651.567,159.96529195590037,1779.4871794871794
1650329637651.813,159.83476132190944,1661.5384615384614
1650329637672.844,159.83476132190944,1564.102564102564
1650329637674.033,159.44444444444446,1486.4468864468863
1650329637675.164,159.57433808553972,1428.5714285714284
1650329637702.7432,159.44444444444446,1389.7435897435896
1650329637702.946,159.314762098414,1367.7655677655678
1650329637704.0579,159.314762098414,1357.5091575091574
1650329637728.943,159.314762098414,1351.6483516483515
1650329637729.0671,159.18529053230395,1344.3223443223442
1650329637730.288,159.18529053230395,1331.8681318681317
1650329637743.021,159.18529053230395,1310.6227106227104
1650329637744.123,159.05602923264314,1281.3186813186812
1650329637744.396,159.05602923264314,1244.6886446886447
1650329637770.353,158.9269776876268,1205.128205128205
1650329637771.555,158.9269776876268,1167.7655677655678
1650329637800.315,158.79813538710988,1136.9963369963368
1650329637800.529,158.79813538710988,1112.087912087912
1650329637801.625,158.66950182260027,1093.040293040293
1650329637805.444,158.66950182260027,1082.051282051282
1650329637807.8699,158.66950182260027,1077.6556776556777
1650329637837.848,158.54107648725216,1081.3186813186812
1650329637838.041,158.41285887585929,1092.3076923076922
1650329637839.189,158.41285887585929,1112.8205128205127
1650329637863.9678,158.41285887585929,1138.4615384615383
1650329637864.166,158.2848484848485,1168.4981684981685
1650329637865.297,158.2848484848485,1197.8021978021977
1650329637867.793,158.1570448122729,1227.106227106227
1650329637897.9312,158.2848484848485,1251.2820512820513
1650329637898.183,158.02944735780554,1269.5970695970695
1650329637899.4219,158.02944735780554,1276.923076923077
1650329637910.409,158.02944735780554,1274.7252747252746
1650329637912.748,157.90205562273275,1266.6666666666665
1650329637912.8699,157.90205562273275,1254.9450549450548
1650329637914.094,157.90205562273275,1241.7582417582416
1650329637915.344,157.77486910994762,1224.9084249084249
1650329637925.2131,157.77486910994762,1208.058608058608
1650329637952.75,157.64788732394365,1191.9413919413919
1650329637952.986,157.64788732394365,1178.021978021978
1650329637954.083,157.64788732394365,1167.032967032967
1650329637972.7358,157.52110977080818,1158.974358974359
1650329637972.92,157.52110977080818,1153.8461538461538
1650329637974.036,157.52110977080818,1148.7179487179487
1650329637975.33,157.64788732394365,1144.3223443223442
1650329638000.2761,157.52110977080818,1137.7289377289376
1650329638025.2358,157.52110977080818,1130.4029304029302
1650329638025.433,157.52110977080818,1121.6117216117216
1650329638026.57,157.52110977080818,1112.087912087912
1650329638037.982,157.52110977080818,1099.6336996336995
1650329638038.196,157.39453595821612,1084.981684981685
1650329638040.553,157.39453595821612,1068.8644688644688
1650329638041.709,157.26816539542352,1052.7472527472528
1650329638072.721,157.52110977080818,1040.2930402930401
1650329638072.9111,157.39453595821612,1033.6996336996335
1650329638074.049,157.52110977080818,1032.2344322344322
1650329638097.889,157.52110977080818,1034.4322344322343
1650329638100.176,157.52110977080818,1043.2234432234432
1650329638100.327,157.52110977080818,1057.142857142857
1650329638101.544,157.52110977080818,1073.9926739926739
1650329638102.804,157.52110977080818,1094.5054945054944
1650329638132.869,157.52110977080818,1118.6813186813185
1650329638134.045,157.39453595821612,1144.3223443223442
1650329638134.2102,157.52110977080818,1169.9633699633698
1650329638155.346,157.52110977080818,1194.1391941391942
1650329638156.436,157.64788732394365,1216.8498168498168
1650329638156.595,157.52110977080818,1238.8278388278388
1650329638157.833,157.52110977080818,1255.6776556776556
1650329638167.84,157.52110977080818,1270.3296703296703
1650329638197.724,157.52110977080818,1281.3186813186812
1650329638197.9111,157.52110977080818,1287.179487179487
1650329638199.0718,157.52110977080818,1288.6446886446886
1650329638217.844,157.52110977080818,1287.179487179487
1650329638225.762,157.52110977080818,1282.7838827838827
1650329638225.96,157.39453595821612,1275.4578754578754
1650329638250.356,157.52110977080818,1266.6666666666665
1650329638251.579,157.52110977080818,1258.6080586080586
1650329638272.709,157.52110977080818,1258.6080586080586
1650329638272.857,157.52110977080818,1272.5274725274724
1650329638274.031,157.39453595821612,1309.1575091575091
1650329638275.334,157.39453595821612,1369.230769230769
1650329638276.4849,157.52110977080818,1458.6080586080584
1650329638276.594,157.39453595821612,1573.6263736263736
1650329638283.0652,157.39453595821612,1711.3553113553112
1650329638310.332,157.26816539542352,1863.7362637362637
1650329638311.517,157.39453595821612,2021.9780219780218
1650329638334.066,157.26816539542352,2176.556776556776
1650329638334.34,157.39453595821612,2316.4835164835163
1650329638335.318,157.39453595821612,2432.967032967033
1650329638336.53,157.26816539542352,2518.6813186813183
1650329638336.7578,157.14199759326112,2569.9633699633696
1650329638344.07,157.26816539542352,2582.4175824175823
1650329638369.3098,157.39453595821612,2557.5091575091574
1650329638370.276,157.39453595821612,2498.9010989010985
1650329638370.482,157.26816539542352,2413.9194139194137
1650329638389.098,157.26816539542352,2306.227106227106
1650329638390.325,157.26816539542352,2184.6153846153843
1650329638392.697,157.39453595821612,2055.6776556776554
1650329638392.854,157.39453595821612,1925.2747252747251
1650329638407.916,157.26816539542352,1800.7326007326005
1650329638437.845,157.39453595821612,1684.9816849816848
1650329638438.985,157.39453595821612,1580.9523809523807
1650329638450.316,157.39453595821612,1491.5750915750914
1650329638450.598,157.52110977080818,1418.3150183150183
1650329638452.925,157.52110977080818,1362.6373626373625
1650329638453.998,157.39453595821612,1322.3443223443223
1650329638454.2,157.39453595821612,1297.4358974358975
1650329638487.844,157.39453595821612,1282.051282051282
1650329638512.9011,157.39453595821612,1273.260073260073
1650329638514.059,157.39453595821612,1267.3992673992673
1650329638515.2358,157.39453595821612,1260.07326007326
1650329638515.408,157.52110977080818,1249.8168498168498
1650329638516.5688,157.52110977080818,1232.2344322344322
1650329638522.69,157.52110977080818,1209.5238095238094
1650329638522.801,157.52110977080818,1185.3479853479853
1650329638550.3782,157.52110977080818,1160.4395604395604
1650329638551.6418,157.64788732394365,1138.4615384615383
1650329638576.47,157.64788732394365,1122.3443223443223
1650329638577.6929,157.52110977080818,1113.5531135531135
1650329638577.79,157.52110977080818,1112.8205128205127
1650329638582.9302,157.64788732394365,1119.4139194139193
1650329638610.2349,157.52110977080818,1132.6007326007325
1650329638610.4219,157.52110977080818,1150.9157509157508
1650329638611.68,157.52110977080818,1171.4285714285713
1650329638635.4119,157.77486910994762,1193.4065934065934
1650329638637.753,157.64788732394365,1214.6520146520145
1650329638637.9722,157.64788732394365,1235.164835164835
1650329638640.415,157.64788732394365,1252.014652014652
1650329638641.689,157.77486910994762,1263.003663003663
1650329638642.766,157.77486910994762,1270.3296703296703
1650329638643.032,157.77486910994762,1272.5274725274724
1650329638670.329,157.77486910994762,1268.8644688644688
1650329638671.667,157.90205562273275,1261.5384615384614
1650329638695.099,157.90205562273275,1246.8864468864467
1650329638695.3982,157.77486910994762,1227.8388278388277
1650329638695.516,157.90205562273275,1202.9304029304028
1650329638696.5688,157.90205562273275,1176.5567765567764
1650329638707.732,158.02944735780554,1148.7179487179487
1650329638707.917,157.90205562273275,1121.6117216117216
1650329638735.48,158.02944735780554,1096.7032967032967
1650329638752.869,158.02944735780554,1074.7252747252746
1650329638753.927,158.1570448122729,1056.4102564102564
1650329638755.176,158.02944735780554,1041.7582417582416
1650329638755.3079,158.1570448122729,1029.3040293040292
1650329638756.541,158.1570448122729,1019.0476190476189
1650329638787.916,158.02944735780554,1013.1868131868131
1650329638788.1118,158.1570448122729,1009.5238095238094
1650329638812.8728,158.2848484848485,1007.3260073260072
1650329638814.058,158.2848484848485,1005.8608058608058
1650329638817.719,158.41285887585929,1007.3260073260072
1650329638820.22,158.2848484848485,1007.3260073260072
1650329638820.405,158.2848484848485,1009.5238095238094
1650329638821.594,158.41285887585929,1016.8498168498168
1650329638848.946,158.41285887585929,1028.5714285714284
1650329638849.055,158.41285887585929,1040.2930402930401
1650329638850.2979,158.41285887585929,1053.4798534798533
1650329638874.1108,158.41285887585929,1069.5970695970695
1650329638875.294,158.41285887585929,1089.3772893772893
1650329638876.445,158.41285887585929,1109.1575091575091
1650329638876.5718,158.54107648725216,1127.4725274725274
1650329638887.9932,158.66950182260027,1142.1245421245421
1650329638917.727,158.54107648725216,1155.3113553113553
1650329638917.8938,158.66950182260027,1164.102564102564
1650329638919.079,158.79813538710988,1167.7655677655678
1650329638932.946,158.79813538710988,1167.7655677655678
1650329638933.972,158.9269776876268,1167.032967032967
1650329638935.221,158.9269776876268,1162.6373626373625
1650329638935.353,158.9269776876268,1156.0439560439559
1650329638969.089,159.05602923264314,1149.4505494505493
1650329638970.208,159.05602923264314,1138.4615384615383
1650329638970.365,159.18529053230395,1128.2051282051282
1650329638990.58,159.05602923264314,1115.7509157509157
1650329638993.094,159.18529053230395,1104.029304029304
1650329638994.05,159.18529053230395,1090.8424908424909
1650329638994.2678,159.18529053230395,1082.7838827838827
1650329639004.235,159.314762098414,1079.8534798534797
1650329758525.889,192.53684210526325,0.0
1650329758535.717,192.53684210526325,0.0
1650329758545.429,192.53684210526325,0.0
1650329758555.43,192.53684210526325,0.0
1650329758586.566,192.53684210526325,0.0
1650329758586.745,192.53684210526325,0.0
1650329758587.9058,192.53684210526325,0.0
1650329758606.6812,192.53684210526325,0.0
1650329758606.812,200.18140010219727,0.0
1650329758607.944,199.97702909647782,0.0
1650329758610.384,200.18140010219727,0.0
1650329758620.436,199.97702909647782,0.0
1650329758652.884,200.18140010219727,0.0
1650329758653.1,200.18140010219727,0.0
1650329758655.448,199.97702909647782,0.0
1650329758656.533,200.18140010219727,0.0
1650329758656.636,199.97702909647782,0.0
1650329758674.174,200.18140010219727,0.0
1650329758675.397,199.97702909647782,0.0
1650329758679.131,199.97702909647782,0.0
1650329758714.151,200.18140010219727,0.0
1650329758714.335,200.18140010219727,0.0
1650329758715.472,200.18140010219727,0.0
1650329758730.284,199.97702909647782,0.0
1650329758730.399,200.18140010219727,0.0
1650329758731.6548,200.38618925831204,0.0
1650329758732.903,200.18140010219727,0.0
1650329758760.324,200.18140010219727,0.0
1650329758760.526,200.18140010219727,0.0
1650329758761.6428,200.18140010219727,0.0
1650329758786.663,200.38618925831204,0.0
1650329758787.7942,200.18140010219727,0.0
1650329758787.915,200.18140010219727,0.0
1650329758797.874,200.18140010219727,0.0
1650329758799.116,200.18140010219727,0.0
1650329758827.879,200.18140010219727,0.0
1650329758827.987,200.18140010219727,0.0
1650329758829.149,200.38618925831204,0.0
1650329758853.089,200.38618925831204,0.0
1650329758854.048,200.18140010219727,0.0
1650329758854.1592,200.18140010219727,0.0
1650329758855.532,200.38618925831204,0.0
1650329758859.247,200.18140010219727,0.0
1650329758887.849,200.18140010219727,0.0
1650329758888.011,200.18140010219727,0.0
1650329758889.2131,200.38618925831204,0.0
1650329758910.455,200.38618925831204,0.0
1650329758911.604,199.97702909647782,0.0
1650329758911.777,200.38618925831204,0.0
1650329758912.9119,200.38618925831204,0.0
1650329758922.97,200.38618925831204,0.0
1650329758954.181,200.18140010219727,0.0
1650329758954.4019,200.18140010219727,0.0
1650329758955.42,200.38618925831204,0.0
1650329758968.087,200.38618925831204,0.0
1650329758970.4539,200.18140010219727,0.0
1650329758970.7998,200.38618925831204,0.0
1650329758971.823,200.38618925831204,0.0
1650329758981.71,200.38618925831204,0.0
1650329759007.96,200.38618925831204,0.0
1650329759009.068,200.38618925831204,0.0
1650329759009.2102,200.38618925831204,0.0
1650329759033.4512,200.38618925831204,0.0
1650329759034.095,200.38618925831204,0.0
1650329759034.399,200.38618925831204,0.0
1650329759035.492,200.38618925831204,0.0
1650329759068.1501,200.5913978494624,0.0
1650329759069.229,200.38618925831204,0.0
1650329759070.3372,200.5913978494624,0.0
1650329759070.594,200.5913978494624,0.0
1650329759092.921,200.38618925831204,0.0
1650329759094.011,200.38618925831204,0.0
1650329759094.1301,200.5913978494624,0.0
1650329759101.752,200.38618925831204,0.0
1650329759126.683,200.38618925831204,0.0
1650329759127.909,200.18140010219727,0.0
1650329759150.3079,200.38618925831204,0.0
1650329759150.486,200.5913978494624,0.0
1650329759151.628,200.38618925831204,0.0
1650329759152.853,200.5913978494624,0.0
1650329759153.002,200.38618925831204,0.0
1650329759181.8599,200.38618925831204,0.0
1650329759182.091,200.5913978494624,0.0
1650329759206.799,200.38618925831204,0.0
1650329759207.8381,200.5913978494624,0.0
1650329759208.0159,200.38618925831204,0.0
1650329759217.952,200.5913978494624,0.0
1650329759219.083,200.5913978494624,0.0
1650329759219.255,200.38618925831204,0.0
1650329759220.382,200.5913978494624,0.0
1650329759247.917,200.38618925831204,0.0
1650329759249.1829,200.38618925831204,0.0
1650329759274.06,200.5913978494624,0.0
1650329759274.2231,200.38618925831204,0.0
1650329759275.415,200.5913978494624,0.0
1650329759279.0588,200.5913978494624,0.0
1650329759279.231,200.38618925831204,0.0
1650329759307.929,200.5913978494624,0.0
1650329759309.225,200.5913978494624,0.0
1650329759337.928,200.38618925831204,0.0
1650329759338.981,200.79702716555616,0.0
1650329759339.0579,200.5913978494624,0.0
1650329759340.3499,200.5913978494624,0.0
1650329759341.4832,200.5913978494624,0.0
1650329759341.5571,200.79702716555616,0.0
1650329759368.0142,200.79702716555616,0.0
1650329759369.18,200.79702716555616,0.0
1650329759394.0972,200.5913978494624,0.0
1650329759394.281,200.79702716555616,0.0
1650329759394.396,200.79702716555616,0.0
1650329759395.416,201.0030785017958,0.0
1650329759399.05,200.5913978494624,0.0
1650329759399.214,201.0030785017958,0.0
1650329759424.382,200.79702716555616,0.0
1650329759425.539,201.0030785017958,0.0
1650329759450.488,200.79702716555616,0.0
1650329759451.541,201.0030785017958,0.0
1650329759451.691,201.0030785017958,0.0
1650329759459.152,201.0030785017958,0.0
1650329759460.28,200.79702716555616,0.0
1650329759460.438,200.79702716555616,0.0
1650329759487.9812,201.0030785017958,0.0
1650329759489.1702,201.20955315870572,0.0
1650329759512.914,201.0030785017958,0.0
1650329759514.01,201.0030785017958,0.0
1650329759514.156,201.20955315870572,0.0
1650329759515.432,201.20955315870572,0.0
1650329759540.395,201.0030785017958,0.0
1650329759540.601,201.20955315870572,0.0
1650329759541.7112,201.0030785017958,0.0
1650329759566.947,201.20955315870572,0.0
1650329759568.2458,201.0030785017958,0.0
1650329759577.8289,201.0030785017958,0.0
1650329759577.954,201.20955315870572,0.0
1650329759579.0862,201.0030785017958,0.0
1650329759608.033,201.0030785017958,0.0
1650329759608.251,201.0030785017958,0.0
1650329759609.183,201.0030785017958,0.0
1650329759632.887,201.20955315870572,0.0
1650329759633.989,200.79702716555616,0.0
1650329759634.0598,201.20955315870572,0.0
1650329759635.4722,201.20955315870572,0.0
1650329759639.139,201.0030785017958,0.0
1650329759665.38,201.0030785017958,0.0
1650329759665.538,201.0030785017958,0.0
1650329759690.418,201.20955315870572,0.0
1650329759691.6758,201.20955315870572,0.0
1650329759701.647,201.0030785017958,0.0
1650329759702.817,201.20955315870572,0.0
1650329759702.974,201.20955315870572,0.0
1650329759728.53,201.20955315870572,0.0
1650329759729.125,201.20955315870572,0.0
1650329759729.288,201.20955315870572,0.0
1650329759754.18,201.20955315870572,0.0
1650329759755.361,201.20955315870572,0.0
1650329759757.8472,201.0030785017958,0.0
1650329759758.974,201.20955315870572,0.0
1650329759759.0598,201.20955315870572,0.0
1650329759785.5261,201.20955315870572,0.0
1650329759810.3398,201.20955315870572,0.0
1650329759810.59,201.20955315870572,0.0
1650329759811.6519,201.4164524421594,0.0
1650329759815.419,201.20955315870572,0.0
1650329759817.906,201.20955315870572,0.0
1650329759819.023,201.20955315870572,0.0
1650329759819.166,201.20955315870572,0.0
1650329759844.2212,201.20955315870572,0.0
1650329759845.2761,201.0030785017958,0.0
1650329759845.375,201.20955315870572,0.0
1650329759870.575,201.20955315870572,0.0
1650329759871.796,201.0030785017958,0.0
1650329759882.983,201.20955315870572,0.0
1650329759907.826,201.0030785017958,0.0
1650329759907.948,201.20955315870572,0.0
1650329759909.12,201.20955315870572,0.0
1650329759934.17,201.0030785017958,0.0
1650329759934.4211,201.20955315870572,0.0
1650329759935.595,201.20955315870572,0.0
1650329759941.74,201.20955315870572,0.0
1650329759942.889,201.20955315870572,0.0
1650329759943.1301,201.20955315870572,0.0
1650329759967.9128,201.4164524421594,0.0
1650329759969.146,201.20955315870572,0.0
1650329759994.0332,201.20955315870572,0.0
1650329759994.2,201.20955315870572,0.0
1650329759995.533,201.20955315870572,0.0
1650329759999.1812,201.0030785017958,0.0
1650329760002.666,201.0030785017958,0.0
1650329760027.907,201.20955315870572,0.0
1650329760028.0981,201.20955315870572,0.0
1650329760029.175,201.0030785017958,0.0
1650329760055.4148,201.20955315870572,0.0
1650329760055.6072,201.20955315870572,0.0
1650329760057.932,201.20955315870572,0.0
1650329760059.248,201.20955315870572,0.0
1650329760060.519,201.0030785017958,0.0
1650329760087.807,201.20955315870572,0.0
1650329760087.909,201.20955315870572,0.0
1650329760089.087,201.0030785017958,0.0
1650329760114.1802,201.0030785017958,0.0
1650329760114.358,201.20955315870572,0.0
1650329760115.4329,201.0030785017958,0.0
1650329760119.322,201.20955315870572,0.0
1650329760120.508,200.79702716555616,0.0
1650329760147.933,201.0030785017958,0.0
1650329760148.112,201.0030785017958,0.0
1650329760149.152,201.0030785017958,0.0
1650329760174.1199,201.0030785017958,0.0
1650329760174.346,200.79702716555616,0.0
1650329760175.5422,201.0030785017958,0.0
1650329760177.969,201.0030785017958,0.0
1650329760207.8828,200.79702716555616,0.0
1650329760208.985,201.0030785017958,0.0
1650329760209.049,201.0030785017958,0.0
1650329760234.318,201.0030785017958,0.0
1650329760235.358,201.0030785017958,0.0
1650329760235.5461,200.79702716555616,0.0
1650329760240.439,201.20955315870572,0.0
1650329760241.662,201.0030785017958,0.0
1650329760242.842,200.79702716555616,0.0
1650329760242.96,201.0030785017958,0.0
1650329760267.9019,200.79702716555616,0.0
1650329760269.1318,201.0030785017958,0.0
1650329760294.126,200.79702716555616,0.0
1650329760294.321,201.0030785017958,0.0
1650329760295.614,201.0030785017958,0.0
1650329760301.669,200.79702716555616,0.0
1650329760302.895,200.79702716555616,0.0
1650329760327.907,200.79702716555616,0.0
1650329760328.082,200.79702716555616,0.0
1650329760329.237,201.0030785017958,0.0
1650329760354.208,200.5913978494624,0.0
1650329760354.409,200.5913978494624,0.0
1650329760355.6,200.79702716555616,0.0
1650329760357.955,200.79702716555616,0.0
1650329760387.902,200.79702716555616,0.0
1650329760389.031,200.5913978494624,0.0
1650329760389.173,200.5913978494624,0.0
1650329760414.2239,200.79702716555616,0.0
1650329760415.302,200.5913978494624,0.0
1650329760415.4119,200.79702716555616,0.0
1650329760420.492,200.79702716555616,0.0
1650329760421.709,200.79702716555616,0.0
1650329760447.849,200.5913978494624,0.0
1650329760448.0,200.5913978494624,0.0
1650329760449.176,200.79702716555616,0.0
1650329760474.153,200.79702716555616,0.0
1650329760475.2651,200.79702716555616,0.0
1650329760475.3909,200.79702716555616,0.0
1650329760480.3928,200.79702716555616,0.0
1650329760481.622,200.79702716555616,0.0
1650329760508.044,200.5913978494624,0.0
1650329760508.296,200.79702716555616,0.0
1650329760509.4321,200.79702716555616,0.0
1650329760534.167,200.5913978494624,0.0
1650329760535.275,200.38618925831204,0.0
1650329760535.418,200.79702716555616,0.0
1650329760539.1482,200.79702716555616,0.0
1650329760567.986,200.79702716555616,0.0
1650329760569.3582,200.5913978494624,0.0
1650329760594.039,200.79702716555616,0.0
1650329760594.22,200.79702716555616,0.0
1650329760595.403,200.5913978494624,0.0
1650329760599.042,200.5913978494624,0.0
1650329760599.198,200.5913978494624,0.0
1650329760600.393,200.5913978494624,0.0
1650329760627.907,200.38618925831204,0.0
1650329760629.028,200.38618925831204,0.0
1650329760629.172,200.5913978494624,0.0
1650329760654.181,200.38618925831204,0.0
1650329760655.4958,200.5913978494624,0.0
1650329760659.098,200.38618925831204,0.0
1650329760659.2551,200.18140010219727,0.0
1650329760684.165,200.38618925831204,0.0
1650329760685.418,200.38618925831204,0.0
1650329760711.604,200.18140010219727,0.0
1650329760711.793,200.5913978494624,0.0
1650329760712.965,200.38618925831204,0.0
1650329760714.162,200.38618925831204,0.0
1650329760720.428,200.18140010219727,0.0
1650329760720.853,200.38618925831204,0.0
1650329760721.676,200.18140010219727,0.0
1650329760749.552,200.38618925831204,0.0
1650329760749.743,200.18140010219727,0.0
1650329760774.055,200.18140010219727,0.0
1650329760774.224,200.18140010219727,0.0
1650329760775.396,200.38618925831204,0.0
1650329760777.8262,199.97702909647782,0.0
1650329760777.989,200.18140010219727,0.0
1650329760808.012,199.97702909647782,0.0
1650329760809.219,199.97702909647782,0.0
1650329760834.175,199.77307496175425,0.0
1650329760835.294,199.97702909647782,0.0
1650329760835.418,199.97702909647782,0.0
1650329760840.355,199.97702909647782,0.0
1650329760841.46,199.77307496175425,0.0
1650329760841.511,199.97702909647782,0.0
1650329760867.916,199.56953642384101,0.0
1650329760869.134,199.77307496175425,0.0
1650329760894.195,199.77307496175425,0.0
1650329760895.3582,199.77307496175425,0.0
1650329760895.504,199.56953642384101,0.0
1650329760899.292,199.77307496175425,0.0
1650329760900.3142,199.56953642384101,0.0
1650329760900.5051,199.56953642384101,0.0
1650329760925.4092,199.16370106761562,0.0
1650329760950.427,199.36641221374043,0.0
1650329760951.667,199.36641221374043,0.0
1650329760954.011,199.16370106761562,0.0
1650329760954.123,199.16370106761562,0.0
1650329760955.4902,199.36641221374043,0.0
1650329760962.894,198.96140172676482,0.0
1650329760963.0898,198.96140172676482,0.0
1650329760987.91,198.96140172676482,0.0
1650329760989.1301,199.16370106761562,0.0
1650329761014.2578,198.96140172676482,0.0
1650329761015.385,198.96140172676482,0.0
1650329761015.555,198.96140172676482,0.0
1650329761022.344,198.7595129375951,0.0
1650329761022.981,198.55803345159651,0.0
1650329761023.146,198.7595129375951,0.0
1650329761047.951,198.35696202531642,0.0
1650329761073.0168,198.7595129375951,0.0
1650329761074.115,198.55803345159651,0.0
1650329761074.261,198.35696202531642,0.0
1650329761074.38,198.55803345159651,0.0
1650329761080.628,198.35696202531642,0.0
1650329761107.855,198.1562974203338,0.0
1650329761108.047,198.35696202531642,0.0
1650329761138.04,198.35696202531642,0.0
1650329761139.688,198.1562974203338,0.0
1650329761140.377,197.95603840323392,0.0
1650329761141.691,198.1562974203338,0.0
1650329761141.875,197.95603840323392,0.0
1650329761142.893,197.95603840323392,0.0
1650329761167.915,197.95603840323392,0.0
1650329761168.146,197.756183745583,0.0
1650329761169.121,197.756183745583,0.0
1650329761194.173,197.756183745583,0.0
1650329761195.4702,197.55673222390317,0.0
1650329761199.0508,197.756183745583,0.0
1650329761199.2432,197.35768261964733,0.0
1650329761200.358,197.55673222390317,0.0
1650329761225.421,197.35768261964733,0.0
1650329761225.605,197.1590337191746,6.593406593406593
1650329761250.419,197.35768261964733,90.1098901098901
1650329761251.631,197.1590337191746,202.1978021978022
1650329761255.447,196.96078431372547,322.34432234432234
1650329761257.815,197.1590337191746,440.29304029304024
1650329761257.959,196.96078431372547,547.2527472527472
1650329761284.4019,196.76293319939728,641.025641025641
1650329761285.523,196.76293319939728,722.3443223443223
1650329761285.801,196.96078431372547,791.9413919413919
1650329761310.469,196.96078431372547,847.6190476190476
1650329761311.658,196.5654791771199,890.8424908424907
1650329761321.6792,196.36842105263156,925.2747252747253
1650329761322.835,196.5654791771199,951.6483516483515
1650329761322.98,196.36842105263156,972.8937728937728
1650329761348.012,196.5654791771199,988.2783882783882
1650329761349.109,196.17175763645466,999.9999999999999
1650329761349.509,196.36842105263156,1008.7912087912088
1650329761374.167,196.17175763645466,1016.8498168498168
1650329761375.384,195.97548774387192,1023.4432234432234
1650329761380.252,196.17175763645466,1026.3736263736264
1650329761380.39,195.97548774387192,1027.8388278388277
1650329761381.622,195.97548774387192,1027.8388278388277
1650329761407.913,195.97548774387192,1027.8388278388277
1650329761409.007,195.77961019490255,1025.6410256410256
1650329761409.108,195.97548774387192,1021.2454212454212
1650329761435.628,195.77961019490255,1016.8498168498168
1650329761437.981,195.77961019490255,1013.1868131868131
1650329761439.34,195.77961019490255,1016.117216117216
1650329761440.438,195.58412381427857,1030.7692307692307
1650329761440.686,195.77961019490255,1068.8644688644688
1650329761468.06,195.58412381427857,1145.7875457875457
1650329761469.141,195.38902743142143,1273.260073260073
1650329761469.347,195.58412381427857,1459.3406593406592
1650329761495.656,195.38902743142143,1702.5641025641025
1650329761498.069,195.19431988041853,1996.3369963369962
1650329761499.268,195.38902743142143,2315.0183150183148
1650329761528.108,195.19431988041853,2645.421245421245
1650329761528.31,195.38902743142143,2783.8827838827838
1650329761529.368,195.19431988041853,2783.8827838827838
1650329761554.1821,195.19431988041853,2783.8827838827838
1650329761554.382,195.38902743142143,2783.8827838827838
1650329761555.511,195.19431988041853,2783.8827838827838
1650329761558.051,195.38902743142143,2783.8827838827838
1650329761559.242,195.0,2784.6153846153843
1650329761588.041,195.19431988041853,2783.8827838827838
1650329761588.236,195.19431988041853,2784.6153846153843
1650329761589.326,195.19431988041853,2783.8827838827838
1650329761614.446,195.19431988041853,2784.6153846153843
1650329761614.697,195.0,2783.8827838827838
1650329761615.551,195.19431988041853,2783.8827838827838
1650329761619.366,195.19431988041853,2783.8827838827838
1650329761620.533,195.0,2784.6153846153843
1650329761648.0042,195.0,2739.194139194139
1650329761648.204,195.0,2575.091575091575
1650329761649.373,195.0,2371.428571428571
1650329761674.4138,195.19431988041853,2163.3699633699634
1650329761674.7798,195.0,1969.9633699633698
1650329761675.603,195.0,1801.4652014652013
1650329761679.229,195.19431988041853,1659.3406593406592
1650329761680.479,195.0,1547.985347985348
1650329761707.9612,195.0,1459.3406593406592
1650329761708.114,195.0,1392.6739926739926
1650329761709.278,195.19431988041853,1337.7289377289376
1650329761738.338,195.0,1294.5054945054944
1650329761738.491,195.0,1255.6776556776556
1650329761739.326,195.19431988041853,1222.7106227106226
1650329761741.694,195.0,1194.1391941391942
1650329761743.0488,194.80606663351566,1172.8937728937728
1650329761768.074,195.0,1159.7069597069597
1650329761768.275,195.0,1157.5091575091574
1650329761769.291,195.19431988041853,1167.7655677655678
1650329761794.1548,195.0,1184.6153846153845
1650329761794.406,195.0,1213.1868131868132
1650329761795.376,195.19431988041853,1249.8168498168498
1650329761797.951,195.0,1293.7728937728937
1650329761823.077,195.0,1341.3919413919414
1650329761824.1921,195.0,1391.2087912087911
1650329761824.361,195.0,1435.8974358974358
1650329761850.506,195.0,1474.7252747252746
1650329761851.6692,194.80606663351566,1505.4945054945053
1650329761851.879,195.0,1523.8095238095236
1650329761866.7358,195.0,1530.4029304029302
1650329761867.972,195.0,1524.5421245421244
1650329761869.202,195.0,1509.1575091575091
1650329761880.699,195.0,1480.5860805860805
1650329761880.908,195.0,1442.4908424908424
1650329761895.524,195.0,1395.6043956043954
1650329761920.5872,195.0,1342.8571428571427
1650329761920.739,195.0,1286.4468864468863
1650329761921.724,195.0,1232.2344322344322
1650329761945.714,195.0,1179.4871794871794
1650329761947.936,195.0,1132.6007326007325
1650329761948.086,195.0,1089.3772893772893
1650329761949.2449,195.19431988041853,1051.2820512820513
1650329761950.42,195.0,1018.3150183150183
1650329761977.999,195.0,991.2087912087911
1650329761978.164,195.19431988041853,969.9633699633699
1650329761979.229,195.19431988041853,953.8461538461538
1650329762004.513,195.19431988041853,944.3223443223443
1650329762005.589,195.19431988041853,941.3919413919414
1650329762015.551,195.0,940.6593406593406
1650329762015.9521,195.19431988041853,945.0549450549449
1650329762040.884,195.0,951.6483516483515
1650329762041.7048,195.0,960.4395604395604
1650329762041.9011,195.38902743142143,970.6959706959707
1650329762068.238,195.19431988041853,980.2197802197802
1650329762069.3518,195.19431988041853,988.2783882783882
1650329762071.868,195.0,994.8717948717948
1650329762072.9812,195.0,1002.1978021978022
1650329762073.147,195.19431988041853,1010.2564102564102
1650329762098.1282,195.19431988041853,1017.5824175824175
1650329762099.2341,195.19431988041853,1027.106227106227
1650329762099.456,195.38902743142143,1040.2930402930401
1650329762124.51,195.19431988041853,1057.142857142857
1650329762125.696,195.38902743142143,1074.7252747252746
1650329762135.656,195.19431988041853,1091.5750915750914
1650329762135.865,195.19431988041853,1109.1575091575091
1650329762160.803,195.19431988041853,1126.007326007326
1650329762161.7898,195.0,1141.3919413919414
1650329762188.0432,195.38902743142143,1153.8461538461538
1650329762188.2542,195.19431988041853,1161.904761904762
1650329762189.321,195.58412381427857,1168.4981684981685
1650329762205.593,195.38902743142143,1172.8937728937728
1650329762206.73,195.38902743142143,1177.2893772893772
1650329762206.876,195.58412381427857,1180.2197802197802
1650329762208.162,195.38902743142143,1181.6849816849815
1650329762210.4868,195.38902743142143,1182.4175824175823
1650329762211.633,195.58412381427857,1180.2197802197802
1650329762211.8298,195.38902743142143,1178.7545787545787
1650329762222.142,195.58412381427857,1172.8937728937728
1650329762233.0251,195.58412381427857,1163.3699633699632
1650329762259.373,195.58412381427857,1149.4505494505493
1650329762260.477,195.58412381427857,1131.8681318681317
1650329762260.681,195.58412381427857,1114.2857142857142
1650329762285.779,195.58412381427857,1098.168498168498
1650329762286.76,195.58412381427857,1085.7142857142856
1650329762287.0369,195.77961019490255,1076.923076923077
1650329762301.948,195.77961019490255,1068.131868131868
1650329762303.133,195.58412381427857,1061.5384615384614
1650329762304.296,195.77961019490255,1058.6080586080586
1650329762304.507,195.77961019490255,1056.4102564102564
1650329762320.625,195.58412381427857,1054.9450549450548
1650329762324.369,195.97548774387192,1052.7472527472528
1650329762353.124,195.58412381427857,1050.5494505494505
1650329762353.343,195.77961019490255,1045.4212454212454
1650329762354.255,195.77961019490255,1041.7582417582416
1650329762383.073,195.77961019490255,1040.2930402930401
1650329762383.2668,195.77961019490255,1041.0256410256409
1650329762384.285,195.77961019490255,1043.2234432234432
1650329762384.495,195.77961019490255,1048.3516483516482
1650329762399.379,195.97548774387192,1051.2820512820513
1650329762400.4631,195.77961019490255,1054.9450549450548
1650329762400.6829,195.97548774387192,1057.142857142857
1650329762410.4878,195.77961019490255,1061.5384615384614
1650329762420.686,195.77961019490255,1063.7362637362637
1650329762445.7778,195.77961019490255,1069.5970695970695
1650329762470.724,195.77961019490255,1074.7252747252746
1650329762470.928,195.97548774387192,1078.3882783882784
1650329762495.533,195.77961019490255,1082.051282051282
1650329762496.704,195.77961019490255,1082.051282051282
1650329762496.906,195.77961019490255,1081.3186813186812
1650329762522.069,195.77961019490255,1082.051282051282
1650329762523.114,195.97548774387192,1084.2490842490843
1650329762548.2668,195.97548774387192,1087.179487179487
1650329762549.273,195.77961019490255,1092.3076923076922
1650329762549.481,195.77961019490255,1096.7032967032967
1650329762558.2832,195.58412381427857,1100.3663003663003
1650329762559.233,195.77961019490255,1102.5641025641025
1650329762559.488,195.77961019490255,1101.098901098901
1650329762560.536,195.77961019490255,1098.168498168498
1650329762563.0579,195.97548774387192,1094.5054945054944
1650329762564.2,195.77961019490255,1092.3076923076922
1650329762571.76,195.77961019490255,1098.168498168498
1650329762571.958,195.77961019490255,1124.5421245421244
1650329762579.309,195.58412381427857,1184.6153846153845
1650329762608.071,195.97548774387192,1290.8424908424909
1650329762608.271,195.77961019490255,1453.4798534798533
1650329762609.3198,195.77961019490255,1672.5274725274724
1650329762638.232,195.77961019490255,1940.6593406593406
1650329762639.323,195.58412381427857,2243.223443223443
1650329762639.559,195.77961019490255,2562.6373626373625
1650329762643.316,195.77961019490255,2783.8827838827838
1650329762668.096,195.58412381427857,2783.8827838827838
1650329762669.198,195.77961019490255,2785.3479853479853
1650329762669.461,195.58412381427857,2783.8827838827838
1650329762697.915,195.77961019490255,2783.8827838827838
1650329762699.1392,195.77961019490255,2783.8827838827838
1650329762706.6418,195.77961019490255,2784.6153846153843
1650329762735.444,195.77961019490255,2784.6153846153843
1650329762735.637,195.58412381427857,2783.8827838827838
1650329762736.817,195.77961019490255,2783.8827838827838
1650329762755.375,195.77961019490255,2785.3479853479853
1650329762755.532,195.77961019490255,2783.8827838827838
1650329762757.8699,195.97548774387192,2783.8827838827838
1650329762759.166,195.77961019490255,2783.8827838827838
1650329762760.3718,195.58412381427857,2784.6153846153843
1650329762761.49,195.77961019490255,2748.7179487179487
1650329762761.6301,195.77961019490255,2588.2783882783883
1650329762766.849,195.77961019490255,2386.080586080586
1650329762791.7532,195.77961019490255,2178.0219780219777
1650329762792.001,195.77961019490255,1983.8827838827838
1650329762818.207,195.77961019490255,1817.5824175824175
1650329762819.386,195.77961019490255,1679.8534798534797
1650329762821.81,195.77961019490255,1572.8937728937728
1650329762823.05,195.77961019490255,1490.8424908424906
1650329762823.247,195.77961019490255,1428.5714285714284
1650329762826.9019,195.77961019490255,1378.7545787545787
1650329762855.456,195.58412381427857,1336.263736263736
1650329762855.659,195.77961019490255,1295.970695970696
1650329762856.724,195.77961019490255,1256.4102564102564
1650329762857.894,195.77961019490255,1220.5128205128203
1650329762883.046,195.77961019490255,1191.9413919413919
1650329762886.7542,195.77961019490255,1172.8937728937728
1650329762886.96,195.77961019490255,1166.3003663003662
1650329762912.139,195.77961019490255,1172.8937728937728
1650329762913.022,195.58412381427857,1191.9413919413919
1650329762913.228,195.77961019490255,1219.047619047619
1650329762938.298,195.77961019490255,1254.212454212454
1650329762939.452,195.58412381427857,1292.3076923076922
1650329762964.24,195.77961019490255,1332.6007326007325
1650329762964.468,195.58412381427857,1374.3589743589744
1650329762965.4592,195.58412381427857,1413.9194139194137
1650329762990.671,195.58412381427857,1449.8168498168498
1650329762991.762,195.58412381427857,1473.260073260073
1650329762991.982,195.58412381427857,1487.9120879120878
1650329763005.798,195.58412381427857,1493.7728937728937
1650329763006.764,195.77961019490255,1487.9120879120878
1650329763031.7559,195.58412381427857,1470.3296703296703
1650329763031.9778,195.38902743142143,1441.7582417582416
1650329763033.115,195.58412381427857,1405.128205128205
1650329763058.299,195.58412381427857,1362.6373626373625
1650329763059.3418,195.38902743142143,1317.9487179487178
1650329763059.603,195.58412381427857,1273.9926739926739
1650329763060.493,195.58412381427857,1230.03663003663
1650329763061.706,195.19431988041853,1191.2087912087911
1650329763062.918,195.38902743142143,1153.113553113553
1650329763066.688,195.38902743142143,1117.9487179487178
1650329763066.886,195.38902743142143,1089.3772893772893
1650329763092.0059,195.19431988041853,1065.2014652014652
1650329763093.036,195.38902743142143,1044.6886446886447
1650329763093.238,195.38902743142143,1028.5714285714284
1650329763118.194,195.38902743142143,1019.0476190476189
1650329763119.3982,195.19431988041853,1013.1868131868131
1650329763123.101,195.19431988041853,1012.4542124542124
1650329763127.043,195.38902743142143,1014.6520146520146
1650329763127.254,195.19431988041853,1019.0476190476189
1650329763152.0159,195.19431988041853,1026.3736263736264
1650329763152.957,195.38902743142143,1034.4322344322343
1650329763153.155,195.19431988041853,1042.4908424908424
1650329763178.245,195.38902743142143,1049.084249084249
1650329763179.301,195.38902743142143,1056.4102564102564
1650329763181.722,195.19431988041853,1063.003663003663
1650329763208.251,195.38902743142143,1069.5970695970695
1650329763208.463,195.0,1076.923076923077
1650329763234.2898,195.19431988041853,1087.179487179487
1650329763235.535,195.19431988041853,1097.4358974358975
1650329763235.747,195.19431988041853,1107.6923076923076
1650329763245.719,195.38902743142143,1117.2161172161173
1650329763246.818,195.19431988041853,1126.007326007326
1650329763275.808,195.19431988041853,1136.9963369963368
1650329763276.1099,195.19431988041853,1148.7179487179487
1650329763276.916,195.19431988041853,1161.904761904762
1650329763300.7568,195.38902743142143,1174.3589743589744
1650329763301.6282,195.19431988041853,1185.3479853479853
1650329763301.837,195.19431988041853,1194.1391941391942
1650329763303.117,195.0,1201.4652014652013
1650329763305.48,195.0,1207.3260073260074
1650329763306.8289,195.0,1211.7216117216117
1650329763331.779,195.19431988041853,1213.1868131868132
1650329763332.043,194.80606663351566,1213.1868131868132
1650329763333.092,195.19431988041853,1212.4542124542124
1650329763357.97,195.0,1209.5238095238094
1650329763358.1692,195.19431988041853,1202.197802197802
1650329763359.408,195.19431988041853,1189.7435897435896
1650329763365.515,195.19431988041853,1174.3589743589744
1650329763366.699,195.19431988041853,1158.974358974359
1650329763366.895,195.19431988041853,1142.857142857143
1650329763392.1199,195.38902743142143,1129.6703296703297
1650329763393.137,195.19431988041853,1117.9487179487178
1650329763414.46,195.19431988041853,1108.4249084249084
1650329763414.761,195.19431988041853,1101.8315018315018
1650329763415.662,195.19431988041853,1096.7032967032967
1650329763419.62,195.19431988041853,1094.5054945054944
1650329763448.181,195.0,1094.5054945054944
1650329763449.265,195.0,1093.7728937728937
1650329763449.4988,195.38902743142143,1091.5750915750914
1650329763474.691,195.19431988041853,1088.6446886446886
1650329763475.516,195.0,1086.4468864468863
1650329763475.728,195.19431988041853,1086.4468864468863
1650329763481.735,195.19431988041853,1087.179487179487
1650329763483.175,195.19431988041853,1089.3772893772893
1650329763508.239,195.19431988041853,1093.040293040293
1650329763508.45,195.0,1098.168498168498
1650329763509.29,195.19431988041853,1104.029304029304
1650329763534.6628,195.19431988041853,1111.3553113553112
1650329763535.568,195.19431988041853,1115.7509157509157
1650329763535.78,195.19431988041853,1122.3443223443223
1650329763545.822,195.0,1128.937728937729
1650329763546.8271,195.19431988041853,1136.2637362637363
1650329763571.923,195.19431988041853,1143.5897435897434
1650329763572.196,195.19431988041853,1150.9157509157508
1650329763573.004,195.19431988041853,1157.5091575091574
1650329763598.094,195.0,1164.102564102564
1650329763599.202,195.19431988041853,1171.4285714285713
1650329763599.539,195.19431988041853,1178.021978021978
1650329763600.6301,195.19431988041853,1179.4871794871794
1650329763628.267,195.38902743142143,1178.7545787545787
1650329763629.201,195.19431988041853,1175.0915750915751
1650329763629.404,195.19431988041853,1168.4981684981685
1650329763651.745,195.38902743142143,1161.1721611721612
1650329763651.966,195.19431988041853,1153.113553113553
1650329763653.1091,195.38902743142143,1146.5201465201465
1650329763653.3052,195.38902743142143,1145.054945054945
1650329763663.2231,195.58412381427857,1153.113553113553
1650329763688.125,195.38902743142143,1181.6849816849815
1650329763689.299,195.38902743142143,1243.956043956044
1650329763689.494,195.38902743142143,1353.113553113553
1650329763715.72,195.38902743142143,1515.7509157509157
1650329763720.75,195.19431988041853,1731.8681318681317
1650329763721.679,195.38902743142143,1990.4761904761904
1650329763721.862,195.58412381427857,2278.388278388278
1650329763723.155,195.38902743142143,2576.556776556776
1650329763748.053,195.38902743142143,2783.8827838827838
1650329763749.316,195.38902743142143,2783.8827838827838
1650329763773.268,195.58412381427857,2784.6153846153843
1650329763773.47,195.38902743142143,2783.8827838827838
1650329763774.14,195.58412381427857,2783.8827838827838
1650329763775.369,195.38902743142143,2783.8827838827838
1650329763775.513,195.58412381427857,2784.6153846153843
1650329763812.284,195.58412381427857,2783.8827838827838
1650329763813.098,195.58412381427857,2783.8827838827838
1650329763831.908,195.58412381427857,2783.8827838827838
1650329763833.018,195.58412381427857,2784.6153846153843
1650329763833.219,195.77961019490255,2783.8827838827838
1650329763834.147,195.77961019490255,2785.3479853479853
1650329763841.949,195.58412381427857,2715.0183150183148
1650329763842.202,195.77961019490255,2539.194139194139
1650329763868.305,195.77961019490255,2328.937728937729
1650329763869.4128,195.77961019490255,2112.8205128205127
1650329763893.438,195.77961019490255,1912.087912087912
1650329763894.1619,195.77961019490255,1736.263736263736
1650329763894.33,195.97548774387192,1591.2087912087911
1650329763905.8489,195.97548774387192,1475.4578754578754
1650329763931.8372,195.97548774387192,1389.7435897435896
1650329763932.074,195.97548774387192,1326.007326007326
1650329763932.1958,195.97548774387192,1278.3882783882782
1650329763933.169,196.17175763645466,1241.7582417582416
1650329763950.433,196.17175763645466,1210.2564102564102
1650329763950.845,196.17175763645466,1183.150183150183
1650329763951.8088,196.36842105263156,1158.974358974359
1650329763953.0588,196.17175763645466,1139.9267399267399
1650329763962.954,196.17175763645466,1126.007326007326
1650329763963.157,196.17175763645466,1120.14652014652
1650329763988.3499,196.17175763645466,1123.8095238095236
1650329763989.403,196.36842105263156,1140.6593406593406
1650329764014.394,196.36842105263156,1169.9633699633698
1650329764014.7368,196.17175763645466,1210.2564102564102
1650329764015.476,196.36842105263156,1257.142857142857
1650329764018.015,196.17175763645466,1309.1575091575091
1650329764025.763,196.36842105263156,1362.6373626373625
1650329764026.02,196.36842105263156,1412.4542124542124
1650329764050.585,196.36842105263156,1454.212454212454
1650329764051.763,196.36842105263156,1488.6446886446886
1650329764074.7449,196.17175763645466,1511.3553113553112
1650329764075.454,196.17175763645466,1523.0769230769229
1650329764075.601,196.36842105263156,1523.0769230769229
1650329764077.925,196.36842105263156,1509.89010989011
1650329764114.454,196.36842105263156,1484.2490842490843
1650329764114.767,196.36842105263156,1447.6190476190475
1650329764115.6099,196.5654791771199,1403.6630036630036
1650329764127.1,196.5654791771199,1353.8461538461538
1650329764128.064,196.36842105263156,1301.8315018315018
1650329764128.284,196.5654791771199,1247.6190476190475
1650329764130.636,196.76293319939728,1194.8717948717947
1650329764140.783,196.5654791771199,1145.054945054945
1650329764168.204,196.76293319939728,1101.8315018315018
1650329764168.4302,196.5654791771199,1065.2014652014652
1650329764169.312,196.76293319939728,1036.6300366300366
1650329764194.601,196.5654791771199,1014.6520146520146
1650329764195.548,196.5654791771199,995.6043956043956
1650329764195.752,196.76293319939728,980.9523809523808
1650329764199.343,196.76293319939728,972.1611721611721
1650329764200.577,196.96078431372547,969.9633699633699
1650329764228.2869,196.76293319939728,973.6263736263736
1650329764228.539,196.76293319939728,981.6849816849816
1650329764229.269,196.96078431372547,991.2087912087911
1650329764251.997,196.76293319939728,1004.3956043956043
1650329764253.135,196.76293319939728,1019.0476190476189
1650329764254.273,196.76293319939728,1035.164835164835
1650329764254.48,196.76293319939728,1051.2820512820513
1650329764294.615,196.96078431372547,1067.3992673992673
1650329764295.464,196.76293319939728,1084.2490842490843
1650329764295.67,196.76293319939728,1097.4358974358975
1650329764307.222,196.96078431372547,1109.1575091575091
1650329764308.127,196.96078431372547,1119.4139194139193
1650329764310.4802,196.76293319939728,1130.4029304029302
1650329764325.697,196.76293319939728,1142.1245421245421
1650329764325.949,196.76293319939728,1153.113553113553
1650329764326.938,197.1590337191746,1163.3699633699632
1650329764351.929,196.96078431372547,1174.3589743589744
1650329764352.146,196.96078431372547,1181.6849816849815
1650329764353.19,197.1590337191746,1185.3479853479853
1650329764374.585,196.96078431372547,1188.278388278388
1650329764375.565,196.96078431372547,1191.2087912087911
1650329764377.937,196.96078431372547,1194.1391941391942
1650329764378.1309,197.1590337191746,1197.069597069597
1650329764408.0542,196.96078431372547,1200.7326007326008
1650329764409.207,196.96078431372547,1203.6630036630036
1650329764409.485,197.35768261964733,1207.3260073260074
1650329764434.278,197.1590337191746,1210.989010989011
1650329764435.53,197.1590337191746,1214.6520146520145
1650329764441.8499,196.96078431372547,1214.6520146520145
1650329764443.063,196.96078431372547,1214.6520146520145
1650329764443.267,197.1590337191746,1210.2564102564102
1650329764468.021,197.1590337191746,1205.128205128205
1650329764469.23,197.1590337191746,1197.069597069597
1650329764469.421,197.1590337191746,1186.8131868131868
1650329764499.3801,197.1590337191746,1175.8241758241757
1650329764500.5679,197.1590337191746,1164.8351648351647
1650329764525.85,196.96078431372547,1153.113553113553
1650329764550.482,197.1590337191746,1139.9267399267399
1650329764550.7332,197.35768261964733,1125.2747252747251
1650329764551.884,196.96078431372547,1113.5531135531135
1650329764563.0442,196.96078431372547,1102.5641025641025
1650329764563.4119,197.1590337191746,1095.970695970696
1650329764565.457,197.1590337191746,1090.10989010989
1650329764566.907,197.35768261964733,1082.7838827838827
1650329764595.7998,196.96078431372547,1078.3882783882784
1650329764596.011,197.1590337191746,1075.4578754578754
1650329764596.851,197.1590337191746,1073.9926739926739
1650329764620.914,197.1590337191746,1075.4578754578754
1650329764621.6372,197.35768261964733,1078.3882783882784
1650329764621.868,197.35768261964733,1082.051282051282
1650329764623.138,197.1590337191746,1087.179487179487
1650329764625.4712,197.1590337191746,1093.7728937728937
1650329764626.771,197.1590337191746,1101.8315018315018
1650329764651.552,197.35768261964733,1109.89010989011
1650329764651.743,197.1590337191746,1115.7509157509157
1650329764652.923,196.96078431372547,1122.3443223443223
1650329764675.3408,197.1590337191746,1126.7399267399267
1650329764675.49,197.1590337191746,1134.065934065934
1650329764677.9949,197.1590337191746,1139.9267399267399
1650329764679.331,197.35768261964733,1146.5201465201465
1650329764681.225,196.96078431372547,1151.6483516483515
1650329764705.696,197.1590337191746,1158.2417582417581
1650329764705.9,196.96078431372547,1164.102564102564
1650329764730.724,197.1590337191746,1169.230769230769
1650329764731.7122,196.96078431372547,1172.8937728937728
1650329764731.8562,196.96078431372547,1175.8241758241757
1650329764745.507,197.1590337191746,1180.2197802197802
1650329764746.802,197.1590337191746,1186.080586080586
1650329764772.008,196.96078431372547,1190.4761904761904
1650329764773.078,197.1590337191746,1194.1391941391942
1650329764773.3071,196.96078431372547,1194.8717948717947
1650329764798.1292,197.1590337191746,1192.6739926739926
1650329764799.254,196.96078431372547,1188.278388278388
1650329764799.4849,196.76293319939728,1180.2197802197802
1650329764801.747,197.1590337191746,1172.161172161172
1650329764803.004,196.96078431372547,1166.3003663003662
1650329764805.532,197.1590337191746,1167.7655677655678
1650329764835.677,196.96078431372547,1183.150183150183
1650329764835.922,197.1590337191746,1225.6410256410256
1650329764836.852,197.1590337191746,1306.227106227106
1650329764858.228,196.96078431372547,1438.8278388278388
1650329764858.488,196.96078431372547,1627.8388278388277
1650329764859.288,196.96078431372547,1867.3992673992673
1650329764860.655,196.96078431372547,2148.7179487179487
1650329764888.252,196.96078431372547,2454.212454212454
1650329764888.4648,196.76293319939728,2766.300366300366
1650329764889.3362,196.76293319939728,2785.3479853479853
1650329764914.5168,196.96078431372547,2784.6153846153843
1650329764915.49,196.76293319939728,2783.8827838827838
1650329764915.71,196.96078431372547,2785.3479853479853
1650329764921.811,196.96078431372547,2783.8827838827838
1650329764923.095,196.96078431372547,2783.8827838827838
1650329764948.091,196.76293319939728,2783.8827838827838
1650329764948.363,196.76293319939728,2785.3479853479853
1650329764949.328,196.96078431372547,2783.8827838827838
1650329764974.324,196.96078431372547,2783.8827838827838
1650329764975.484,196.76293319939728,2783.8827838827838
1650329764975.699,196.76293319939728,2784.6153846153843
1650329764982.037,196.76293319939728,2783.8827838827838
1650329764983.155,196.96078431372547,2783.8827838827838
1650329765008.28,196.76293319939728,2783.8827838827838
1650329765008.509,196.76293319939728,2712.8205128205127
1650329765009.188,196.96078431372547,2553.113553113553
1650329765034.469,196.76293319939728,2370.6959706959706
1650329765035.5488,196.76293319939728,2192.6739926739924
1650329765035.834,196.96078431372547,2034.4322344322343
1650329765045.572,196.76293319939728,1901.8315018315018
1650329765046.7852,196.96078431372547,1796.3369963369962
1650329765071.922,196.76293319939728,1715.018315018315
1650329765072.122,196.76293319939728,1652.7472527472526
1650329765073.145,196.76293319939728,1601.4652014652013
1650329765098.112,196.76293319939728,1555.311355311355
1650329765099.313,196.76293319939728,1509.1575091575091
1650329765099.497,196.76293319939728,1460.07326007326
1650329765103.137,196.76293319939728,1408.058608058608
1650329765128.248,196.76293319939728,1355.3113553113553
1650329765129.26,196.5654791771199,1304.0293040293038
1650329765129.552,196.76293319939728,1260.07326007326
1650329765154.619,196.5654791771199,1221.9780219780218
1650329765155.578,196.76293319939728,1194.1391941391942
1650329765165.9219,196.5654791771199,1175.8241758241757
1650329765166.128,196.76293319939728,1170.6959706959706
1650329765166.741,196.96078431372547,1178.021978021978
1650329765191.9849,196.76293319939728,1194.8717948717947
1650329765193.182,196.5654791771199,1218.3150183150183
1650329765193.398,196.96078431372547,1243.956043956044
1650329765218.187,196.5654791771199,1267.3992673992673
1650329765219.455,196.76293319939728,1287.9120879120878
1650329765220.457,196.5654791771199,1300.3663003663003
1650329765220.791,196.5654791771199,1307.6923076923076
1650329765221.7441,196.5654791771199,1309.1575091575091
1650329765248.088,196.36842105263156,1304.7619047619046
1650329765249.377,196.5654791771199,1291.5750915750914
1650329765278.074,196.5654791771199,1274.7252747252746
1650329765278.2832,196.5654791771199,1252.014652014652
1650329765279.32,196.5654791771199,1223.4432234432234
1650329765285.475,196.36842105263156,1192.6739926739926
1650329765285.6729,196.5654791771199,1161.1721611721612
1650329765286.9092,196.5654791771199,1129.6703296703297
1650329765312.149,196.36842105263156,1100.3663003663003
1650329765313.0442,196.5654791771199,1073.9926739926739
1650329765313.293,196.5654791771199,1049.084249084249
1650329765338.344,196.5654791771199,1028.5714285714284
1650329765339.367,196.5654791771199,1013.9194139194138
1650329765345.464,196.5654791771199,1001.4652014652014
1650329765345.7651,196.5654791771199,994.8717948717948
1650329765346.893,196.5654791771199,991.2087912087911
1650329765373.396,196.5654791771199,991.9413919413919
1650329765395.88,196.5654791771199,992.6739926739926
1650329765397.917,196.5654791771199,997.069597069597
1650329765398.1099,196.36842105263156,1002.1978021978022
1650329765399.4182,196.36842105263156,1011.7216117216117
1650329765400.443,196.17175763645466,1021.2454212454212
1650329765400.727,196.5654791771199,1032.967032967033
1650329765428.3901,196.36842105263156,1042.4908424908424
1650329765429.3562,196.36842105263156,1052.014652014652
1650329765454.5679,196.36842105263156,1062.2710622710622
1650329765454.834,196.36842105263156,1073.260073260073
1650329765454.928,196.17175763645466,1084.2490842490843
1650329765455.58,196.36842105263156,1098.9010989010987
1650329765465.464,196.17175763645466,1112.8205128205127
1650329765465.68,196.36842105263156,1128.2051282051282
1650329765495.886,196.17175763645466,1142.857142857143
1650329765496.857,196.36842105263156,1159.7069597069597
1650329765521.979,196.17175763645466,1176.5567765567764
1650329765523.19,196.17175763645466,1191.2087912087911
1650329765523.4412,196.36842105263156,1202.197802197802
1650329765527.0332,195.77961019490255,1209.5238095238094
1650329765551.776,196.17175763645466,1216.8498168498168
1650329765551.956,196.17175763645466,1220.5128205128203
1650329765553.1362,196.17175763645466,1221.9780219780218
1650329765577.904,196.36842105263156,1217.5824175824175
1650329765579.219,196.17175763645466,1211.7216117216117
1650329765604.358,196.36842105263156,1204.3956043956043
1650329765604.555,196.36842105263156,1195.6043956043954
1650329765605.618,196.17175763645466,1185.3479853479853
1650329765630.831,196.36842105263156,1175.0915750915751
1650329765631.0898,196.17175763645466,1163.3699633699632
1650329765631.82,196.36842105263156,1149.4505494505493
1650329765640.728,196.36842105263156,1136.9963369963368
1650329765641.759,196.17175763645466,1123.076923076923
1650329765643.055,196.36842105263156,1111.3553113553112
1650329765643.2778,196.36842105263156,1101.8315018315018
1650329765645.428,196.17175763645466,1095.970695970696
1650329765670.759,196.36842105263156,1089.3772893772893
1650329765671.0352,196.17175763645466,1082.051282051282
1650329765671.853,196.36842105263156,1073.260073260073
1650329765698.106,196.36842105263156,1067.3992673992673
1650329765699.208,196.36842105263156,1063.003663003663
1650329765699.423,196.36842105263156,1063.003663003663
1650329765724.469,196.36842105263156,1063.003663003663
1650329765725.662,196.36842105263156,1064.4688644688645
1650329765750.63,196.17175763645466,1069.5970695970695
1650329765750.901,196.36842105263156,1074.7252747252746
1650329765751.834,196.5654791771199,1078.3882783882784
1650329765761.095,196.36842105263156,1082.051282051282
1650329765761.751,196.36842105263156,1087.9120879120878
1650329765761.948,196.36842105263156,1095.2380952380952
1650329765763.0652,196.17175763645466,1101.098901098901
1650329765765.563,196.36842105263156,1106.227106227106
1650329765791.972,196.36842105263156,1108.4249084249084
1650329765792.1702,196.36842105263156,1112.8205128205127
1650329765793.1,196.36842105263156,1116.4835164835165
1650329765825.837,196.36842105263156,1120.8791208791208
1650329765826.8052,196.5654791771199,1125.2747252747251
1650329765827.002,196.36842105263156,1128.2051282051282
1650329765852.119,196.5654791771199,1132.6007326007325
1650329765853.024,196.36842105263156,1137.7289377289376
1650329765878.267,196.36842105263156,1142.1245421245421
1650329765878.52,196.5654791771199,1147.985347985348
1650329765879.274,196.17175763645466,1153.113553113553
1650329765879.535,196.36842105263156,1155.3113553113553
1650329765880.551,196.5654791771199,1154.5787545787546
1650329765880.8032,196.5654791771199,1155.3113553113553
1650329765881.846,196.5654791771199,1156.7765567765566
1650329765908.407,196.5654791771199,1160.4395604395604
1650329765909.225,196.5654791771199,1163.3699633699632
1650329765909.421,196.5654791771199,1166.3003663003662
1650329765934.512,196.5654791771199,1166.3003663003662
1650329765935.629,196.5654791771199,1167.7655677655678
1650329765943.12,196.5654791771199,1167.7655677655678
1650329765945.458,196.36842105263156,1164.8351648351647
1650329765945.658,196.76293319939728,1158.974358974359
1650329765970.795,196.76293319939728,1151.6483516483515
1650329765971.852,196.5654791771199,1145.7875457875457
1650329765998.1921,196.76293319939728,1137.7289377289376
1650329765999.437,196.5654791771199,1128.937728937729
1650329766003.177,196.5654791771199,1118.6813186813185
1650329766005.603,196.76293319939728,1109.89010989011
1650329766006.697,196.5654791771199,1101.8315018315018
1650329766006.847,196.76293319939728,1103.2967032967033
1650329766031.961,196.5654791771199,1119.4139194139193
1650329766033.137,196.76293319939728,1162.6373626373625
1650329766033.355,196.5654791771199,1245.4212454212454
1650329766058.614,196.5654791771199,1374.3589743589744
1650329766059.387,196.76293319939728,1557.5091575091574
1650329766060.507,196.76293319939728,1791.9413919413919
1650329766085.702,196.76293319939728,2070.32967032967
1650329766085.946,196.76293319939728,2370.6959706959706
1650329766109.791,196.5654791771199,2673.9926739926736
1650329766110.323,196.96078431372547,2783.8827838827838
1650329766110.511,196.76293319939728,2784.6153846153843
1650329766111.886,196.5654791771199,2783.8827838827838
1650329766119.4028,196.96078431372547,2784.6153846153843
1650329766154.0671,196.76293319939728,2783.8827838827838
1650329766154.175,196.76293319939728,2784.6153846153843
1650329766155.48,196.76293319939728,2783.8827838827838
1650329766173.018,196.96078431372547,2783.8827838827838
1650329766174.0388,196.96078431372547,2783.8827838827838
1650329766174.163,196.96078431372547,2785.3479853479853
1650329766175.478,196.96078431372547,2783.8827838827838
1650329766177.9028,197.1590337191746,2783.8827838827838
1650329766179.128,196.96078431372547,2783.8827838827838
1650329766208.032,197.1590337191746,2706.9597069597066
1650329766208.231,197.1590337191746,2534.7985347985345
1650329766209.32,197.1590337191746,2334.065934065934
1650329766234.4102,197.1590337191746,2133.333333333333
1650329766234.761,196.96078431372547,1950.18315018315
1650329766235.689,197.1590337191746,1794.139194139194
1650329766238.061,197.1590337191746,1666.6666666666665
1650329766245.6829,197.1590337191746,1569.230769230769
1650329766245.938,197.1590337191746,1495.970695970696
1650329766276.0142,197.35768261964733,1441.0256410256409
1650329766276.958,197.1590337191746,1399.2673992673992
1650329766295.755,197.35768261964733,1362.6373626373625
1650329766296.022,197.1590337191746,1328.2051282051282
1650329766298.0671,197.55673222390317,1293.040293040293
1650329766299.3828,197.35768261964733,1254.212454212454
1650329766307.1301,197.55673222390317,1213.9194139194137
1650329766338.196,197.1590337191746,1174.3589743589744
1650329766338.4558,197.55673222390317,1137.7289377289376
1650329766339.3582,197.55673222390317,1112.087912087912
1650329766358.2002,197.55673222390317,1097.4358974358975
1650329766358.451,197.55673222390317,1095.970695970696
1650329766359.342,197.35768261964733,1106.227106227106
1650329766360.614,197.55673222390317,1126.7399267399267
1650329766387.099,197.756183745583,1157.5091575091574
1650329766387.357,197.35768261964733,1191.9413919413919
1650329766388.149,197.756183745583,1228.5714285714284
1650329766411.8909,197.55673222390317,1263.003663003663
1650329766412.982,197.55673222390317,1293.040293040293
1650329766413.1812,197.756183745583,1317.9487179487178
1650329766414.281,197.55673222390317,1334.065934065934
1650329766450.651,197.55673222390317,1340.6593406593406
1650329766451.77,197.756183745583,1337.7289377289376
1650329766452.0928,197.55673222390317,1323.076923076923
1650329766472.1538,197.756183745583,1299.6336996336995
1650329766473.093,197.756183745583,1268.131868131868
1650329766474.199,197.756183745583,1232.2344322344322
1650329766474.387,197.756183745583,1194.1391941391942
1650329766475.558,197.756183745583,1158.2417582417581
1650329766485.762,197.756183745583,1125.2747252747251
1650329766514.573,197.756183745583,1095.970695970696
1650329766514.817,197.756183745583,1069.5970695970695
1650329766515.633,197.95603840323392,1047.6190476190475
1650329766531.88,197.756183745583,1030.03663003663
1650329766533.018,197.95603840323392,1014.6520146520146
1650329766533.3208,197.756183745583,1002.1978021978022
1650329766534.2969,197.756183745583,995.6043956043956
1650329766560.786,197.756183745583,994.8717948717948
1650329766561.782,197.95603840323392,996.3369963369963
1650329766589.751,197.95603840323392,1000.7326007326006
1650329766590.005,197.756183745583,1008.7912087912088
1650329766590.584,197.95603840323392,1017.5824175824175
1650329766591.716,197.95603840323392,1027.106227106227
1650329766591.913,197.756183745583,1036.6300366300366
1650329766601.771,197.95603840323392,1046.1538461538462
1650329766606.752,197.95603840323392,1056.4102564102564
1650329766634.1729,197.95603840323392,1066.6666666666665
1650329766635.287,197.95603840323392,1078.3882783882784
1650329766635.445,197.95603840323392,1087.9120879120878
1650329766652.923,197.95603840323392,1098.168498168498
1650329766654.024,197.95603840323392,1107.6923076923076
1650329766654.147,197.95603840323392,1117.2161172161173
1650329766660.5288,197.95603840323392,1126.007326007326
1650329766688.0369,197.95603840323392,1134.7985347985348
1650329766689.211,197.95603840323392,1142.857142857143
1650329766714.0652,197.95603840323392,1150.9157509157508
1650329766714.2651,197.95603840323392,1160.4395604395604
1650329766715.452,197.756183745583,1170.6959706959706
1650329766726.6382,197.95603840323392,1180.2197802197802
1650329766726.906,197.756183745583,1190.4761904761904
1650329766751.7542,198.1562974203338,1198.5347985347985
1650329766752.91,197.95603840323392,1202.197802197802
1650329766775.605,197.756183745583,1202.9304029304028
1650329766777.81,197.756183745583,1199.2673992673992
1650329766777.975,197.756183745583,1193.4065934065934
1650329766779.2449,197.95603840323392,1186.080586080586
1650329766780.3372,197.95603840323392,1175.8241758241757
1650329766780.48,197.95603840323392,1161.904761904762
1650329766786.705,197.756183745583,1147.2527472527472
1650329766822.073,197.95603840323392,1131.8681318681317
1650329766822.9229,197.95603840323392,1115.7509157509157
1650329766823.144,197.95603840323392,1101.8315018315018
1650329766833.031,197.756183745583,1092.3076923076922
1650329766834.1838,197.95603840323392,1084.2490842490843
1650329766835.482,197.95603840323392,1076.923076923077
1650329766835.686,197.756183745583,1068.8644688644688
1650329766860.768,197.756183745583,1061.5384615384614
1650329766861.745,197.95603840323392,1055.6776556776556
1650329766886.869,197.756183745583,1050.5494505494505
1650329766887.944,197.55673222390317,1046.1538461538462
1650329766888.198,197.756183745583,1043.956043956044
1650329766895.7578,197.95603840323392,1043.956043956044
1650329766922.987,197.95603840323392,1046.1538461538462
1650329766923.197,197.756183745583,1050.5494505494505
1650329766924.225,197.55673222390317,1054.212454212454
1650329766950.443,197.95603840323392,1057.8754578754579
1650329766951.708,197.95603840323392,1060.8058608058607
1650329766954.1572,197.55673222390317,1064.4688644688645
1650329766954.45,197.95603840323392,1071.062271062271
1650329766955.482,197.756183745583,1076.1904761904761
1650329766965.311,197.756183745583,1082.051282051282
1650329766965.475,197.55673222390317,1085.7142857142856
1650329766990.4011,197.756183745583,1090.8424908424909
1650329766991.7249,197.756183745583,1095.2380952380952
1650329767015.514,197.55673222390317,1098.168498168498
1650329767017.8162,197.55673222390317,1104.029304029304
1650329767017.952,197.756183745583,1111.3553113553112
1650329767019.151,197.756183745583,1120.14652014652
1650329767052.9448,197.756183745583,1130.4029304029302
1650329767053.166,197.756183745583,1130.4029304029302
1650329767055.451,197.55673222390317,1149.4505494505493
1650329767056.664,197.55673222390317,1157.5091575091574
1650329767081.681,197.55673222390317,1162.6373626373625
1650329767082.818,197.756183745583,1167.7655677655678
1650329767082.978,197.756183745583,1169.230769230769
1650329767112.948,197.55673222390317,1167.7655677655678
1650329767125.422,197.756183745583,1160.4395604395604
1650329767125.757,197.35768261964733,1147.985347985348
1650329767127.145,197.55673222390317,1134.065934065934
1650329767128.13,197.55673222390317,1120.14652014652
1650329767130.483,197.55673222390317,1109.89010989011
1650329767132.567,197.55673222390317,1104.7619047619046
1650329767132.841,197.55673222390317,1108.4249084249084
1650329767141.702,197.35768261964733,1131.8681318681317
1650329767181.539,197.55673222390317,1183.8827838827838
1650329767181.63,197.35768261964733,1278.3882783882782
1650329767182.931,197.55673222390317,1421.9780219780218
1650329767190.4111,197.35768261964733,1616.117216117216
1650329767191.715,197.35768261964733,1852.7472527472526
1650329767192.833,197.35768261964733,2120.879120879121
1650329767192.967,197.35768261964733,2402.9304029304026
1650329767202.9978,197.35768261964733,2679.8534798534797
1650329767227.8572,197.55673222390317,2783.8827838827838
1650329767227.989,197.1590337191746,2784.6153846153843
1650329767229.1492,197.55673222390317,2784.6153846153843
1650329767255.4531,197.35768261964733,2783.8827838827838
1650329767257.92,197.35768261964733,2783.8827838827838
1650329767259.011,197.35768261964733,2784.6153846153843
1650329767259.13,197.35768261964733,2784.6153846153843
1650329767285.491,197.55673222390317,2784.6153846153843
1650329767310.2888,197.35768261964733,2784.6153846153843
1650329767310.447,197.35768261964733,2785.3479853479853
1650329767311.713,197.35768261964733,2780.21978021978
1650329767319.3618,197.55673222390317,2650.5494505494503
1650329767320.2761,197.55673222390317,2456.4102564102564
1650329767320.38,197.1590337191746,2238.8278388278386
1650329767322.989,197.35768261964733,2021.245421245421
1650329767351.712,197.55673222390317,1823.4432234432234
1650329767352.802,197.35768261964733,1651.2820512820513
1650329767352.983,197.55673222390317,1508.4249084249084
1650329767375.683,197.55673222390317,1398.5347985347985
1650329767377.971,197.55673222390317,1318.6813186813185
1650329767380.043,197.55673222390317,1265.9340659340658
1650329767380.296,197.35768261964733,1230.7692307692307
1650329767380.3289,197.55673222390317,1208.7912087912086
1650329767407.999,197.35768261964733,1191.2087912087911
1650329767409.07,197.35768261964733,1171.4285714285713
1650329767409.25,197.55673222390317,1150.18315018315
1650329767431.795,197.55673222390317,1128.2051282051282
1650329767433.226,197.55673222390317,1103.2967032967033
1650329767434.013,197.55673222390317,1079.120879120879
1650329767434.0898,197.35768261964733,1058.6080586080586
1650329767441.647,197.55673222390317,1047.6190476190475
1650329767467.9412,197.35768261964733,1049.084249084249
1650329767469.435,197.55673222390317,1063.7362637362637
1650329767469.604,197.55673222390317,1090.10989010989
1650329767494.259,197.35768261964733,1125.2747252747251
1650329767497.152,197.35768261964733,1171.4285714285713
1650329767497.968,197.55673222390317,1221.245421245421
1650329767505.524,197.55673222390317,1273.260073260073
1650329767505.719,197.35768261964733,1322.3443223443223
1650329767532.825,197.35768261964733,1364.8351648351647
1650329767533.209,197.35768261964733,1397.069597069597
1650329767533.287,197.55673222390317,1419.047619047619
1650329767556.693,197.55673222390317,1427.106227106227
1650329767557.899,197.55673222390317,1423.4432234432234
1650329767559.226,197.55673222390317,1405.128205128205
1650329767588.1218,197.55673222390317,1375.8241758241757
1650329767588.252,197.55673222390317,1336.263736263736
1650329767589.271,197.55673222390317,1291.5750915750914
1650329767614.054,197.55673222390317,1243.956043956044
1650329767614.176,197.35768261964733,1195.6043956043954
1650329767615.429,197.55673222390317,1145.054945054945
1650329767618.006,197.55673222390317,1098.9010989010987
1650329767619.155,197.55673222390317,1057.142857142857
1650329767649.074,197.55673222390317,1024.1758241758241
1650329767649.249,197.55673222390317,996.3369963369963
1650329767650.433,197.756183745583,975.091575091575
1650329767671.694,197.756183745583,961.172161172161
1650329767671.956,197.55673222390317,953.113553113553
1650329767673.317,197.756183745583,950.9157509157509
1650329767674.181,197.55673222390317,953.8461538461538
1650329767685.324,197.55673222390317,960.4395604395604
1650329767685.49,197.55673222390317,967.7655677655677
1650329767710.416,197.756183745583,977.2893772893772
1650329767711.722,197.756183745583,986.8131868131868
1650329767734.151,197.55673222390317,998.5347985347985
1650329767734.4402,197.55673222390317,1009.5238095238094
1650329767735.446,197.756183745583,1021.2454212454212
1650329767738.238,197.55673222390317,1033.6996336996335
1650329767762.809,197.55673222390317,1048.3516483516482
1650329767762.934,197.55673222390317,1065.9340659340658
1650329767764.542,197.55673222390317,1082.7838827838827
1650329767790.578,197.756183745583,1099.6336996336995
1650329767791.582,197.55673222390317,1117.2161172161173
1650329767791.781,197.55673222390317,1134.7985347985348
1650329767800.434,197.756183745583,1149.4505494505493
1650329767801.6611,197.55673222390317,1164.8351648351647
1650329767803.0132,197.756183745583,1177.2893772893772
1650329767834.0708,197.55673222390317,1186.8131868131868
1650329767834.2258,197.756183745583,1191.2087912087911
1650329767835.392,197.756183745583,1197.069597069597
1650329767851.792,197.756183745583,1201.4652014652013
1650329767852.231,197.756183745583,1205.8608058608058
1650329767853.729,197.55673222390317,1205.8608058608058
1650329767857.91,197.55673222390317,1203.6630036630036
1650329767888.1208,197.55673222390317,1201.4652014652013
1650329767889.282,197.35768261964733,1197.069597069597
1650329767889.955,197.95603840323392,1188.278388278388
1650329767914.202,197.756183745583,1178.021978021978
1650329767915.322,197.756183745583,1169.230769230769
1650329767915.4812,197.55673222390317,1160.4395604395604
1650329767919.183,197.756183745583,1153.113553113553
1650329767919.464,197.95603840323392,1142.857142857143
1650329767956.75,197.95603840323392,1133.3333333333333
1650329767957.846,197.55673222390317,1120.14652014652
1650329767958.124,197.95603840323392,1106.227106227106
1650329767972.937,197.756183745583,1090.8424908424909
1650329767974.9019,197.95603840323392,1078.3882783882784
1650329767975.1191,197.756183745583,1068.131868131868
1650329767977.0852,197.95603840323392,1059.3406593406592
1650329767985.385,197.95603840323392,1051.2820512820513
1650329768015.517,197.95603840323392,1047.6190476190475
1650329768015.779,197.756183745583,1045.4212454212454
1650329768016.684,198.1562974203338,1043.2234432234432
1650329768030.583,197.95603840323392,1042.4908424908424
1650329768031.562,198.1562974203338,1043.2234432234432
1650329768031.7422,197.95603840323392,1045.4212454212454
1650329768037.979,197.756183745583,1049.8168498168498
1650329768067.896,197.95603840323392,1052.7472527472528
1650329768069.132,197.95603840323392,1057.142857142857
1650329768094.175,198.1562974203338,1065.9340659340658
1650329768094.434,197.95603840323392,1074.7252747252746
1650329768095.413,197.95603840323392,1084.2490842490843
1650329768100.32,198.1562974203338,1094.5054945054944
1650329768100.488,197.95603840323392,1104.029304029304
1650329768101.7139,198.1562974203338,1112.8205128205127
1650329768128.062,197.95603840323392,1120.14652014652
1650329768129.196,198.1562974203338,1125.2747252747251
1650329768154.243,198.1562974203338,1127.4725274725274
1650329768154.591,198.1562974203338,1129.6703296703297
1650329768155.7861,198.1562974203338,1132.6007326007325
1650329768157.837,198.1562974203338,1135.5311355311355
1650329768157.9321,198.1562974203338,1139.9267399267399
1650329768159.1648,198.35696202531642,1143.5897435897434
1650329768184.255,198.1562974203338,1144.3223443223442
1650329768185.424,198.35696202531642,1145.7875457875457
1650329768210.4248,198.35696202531642,1147.985347985348
1650329768210.725,198.1562974203338,1148.7179487179487
1650329768212.204,198.35696202531642,1146.5201465201465
1650329768217.824,198.35696202531642,1139.9267399267399
1650329768217.928,198.1562974203338,1131.8681318681317
1650329768225.49,198.35696202531642,1126.007326007326
1650329768250.508,198.1562974203338,1120.14652014652
1650329768251.669,198.35696202531642,1115.7509157509157
1650329768285.502,198.1562974203338,1117.9487179487178
1650329768285.8838,198.35696202531642,1134.065934065934
1650329768286.6262,198.1562974203338,1178.021978021978
1650329768287.934,198.1562974203338,1260.07326007326
1650329768288.1318,198.1562974203338,1394.8717948717947
1650329768290.687,198.35696202531642,1582.4175824175823
