Timestamp,GSR,PPG
1650361740240.601,182.30232558139528,0.0
1650361740240.8171,182.30232558139528,0.0
1650361740255.372,182.30232558139528,0.0
1650361740261.375,182.30232558139528,0.0
1650361740291.461,182.30232558139528,0.0
1650361740291.669,182.30232558139528,0.0
1650361740292.816,182.30232558139528,0.0
1650361740319.115,182.30232558139528,0.0
1650361740321.574,214.42528735632183,0.0
1650361740321.786,214.42528735632183,0.0
1650361740322.843,214.42528735632183,0.0
1650361740325.0898,214.6602739726027,0.0
1650361740351.49,214.42528735632183,0.0
1650361740351.656,214.6602739726027,0.0
1650361740352.8188,214.6602739726027,0.0
1650361740376.4182,214.8957761930883,0.0
1650361740377.63,214.6602739726027,0.0
1650361740377.773,214.6602739726027,0.0
1650361740379.061,214.6602739726027,0.0
1650361740411.529,214.6602739726027,0.0
1650361740411.8792,214.6602739726027,0.0
1650361740412.962,214.8957761930883,0.0
1650361740437.792,214.8957761930883,0.0
1650361740438.903,214.8957761930883,0.0
1650361740445.191,214.6602739726027,0.0
1650361740445.3772,214.6602739726027,0.0
1650361740446.554,214.8957761930883,0.0
1650361740471.529,214.8957761930883,0.0
1650361740472.6802,214.8957761930883,0.0
1650361740472.835,214.6602739726027,0.0
1650361740496.5269,215.13179571663917,0.0
1650361740497.694,214.8957761930883,0.0
1650361740497.822,214.8957761930883,0.0
1650361740499.1382,215.13179571663917,0.0
1650361740501.554,214.8957761930883,0.0
1650361740528.9458,214.8957761930883,0.0
1650361740529.13,214.8957761930883,0.0
1650361740554.183,215.13179571663917,0.0
1650361740555.333,215.36833424958766,0.0
1650361740559.0452,215.13179571663917,0.0
1650361740561.504,214.8957761930883,0.0
1650361740561.712,215.13179571663917,0.0
1650361740562.791,215.13179571663917,0.0
1650361740591.533,215.13179571663917,0.0
1650361740592.643,215.13179571663917,0.0
1650361740592.774,215.36833424958766,0.0
1650361740616.626,215.36833424958766,0.0
1650361740617.9658,215.13179571663917,0.0
1650361740621.6482,215.36833424958766,0.0
1650361740621.861,215.36833424958766,0.0
1650361740651.619,215.36833424958766,0.0
1650361740652.8188,215.36833424958766,0.0
1650361740677.681,215.13179571663917,0.0
1650361740677.864,215.36833424958766,0.0
1650361740679.004,215.36833424958766,0.0
1650361740685.333,214.6602739726027,0.0
1650361740711.565,215.60539350577872,0.0
1650361740711.821,215.36833424958766,0.0
1650361740712.965,215.36833424958766,0.0
1650361740737.664,215.36833424958766,0.0
1650361740738.892,215.36833424958766,0.0
1650361740739.02,215.36833424958766,0.0
1650361740745.313,215.60539350577872,0.0
1650361740746.447,215.36833424958766,0.0
1650361740771.569,215.60539350577872,0.0
1650361740771.7942,215.36833424958766,0.0
1650361740772.819,215.36833424958766,0.0
1650361740795.157,215.36833424958766,0.0
1650361740796.3591,215.60539350577872,0.0
1650361740796.48,215.60539350577872,0.0
1650361740797.758,215.60539350577872,0.0
1650361740798.938,215.36833424958766,0.0
1650361740823.919,215.60539350577872,0.0
1650361740824.11,215.36833424958766,0.0
1650361740825.15,215.60539350577872,0.0
1650361740825.303,215.84297520661156,0.0
1650361740850.363,215.60539350577872,0.0
1650361740850.5881,215.84297520661156,0.0
1650361740851.55,215.36833424958766,0.0
1650361740859.235,215.84297520661156,0.0
1650361740866.448,215.60539350577872,0.0
1650361740866.632,215.60539350577872,0.0
1650361740891.53,215.84297520661156,0.0
1650361740892.644,215.60539350577872,0.0
1650361740917.8218,216.08108108108107,0.0
1650361740918.031,215.84297520661156,0.0
1650361740919.0928,215.84297520661156,0.0
1650361740925.3098,215.84297520661156,0.0
1650361740926.502,215.60539350577872,0.0
1650361740926.727,216.08108108108107,0.0
1650361740951.555,215.84297520661156,0.0
1650361740952.698,215.84297520661156,0.0
1650361740977.681,216.08108108108107,0.0
1650361740977.873,215.84297520661156,0.0
1650361740979.007,216.08108108108107,0.0
1650361740983.905,216.08108108108107,0.0
1650361741011.6848,215.84297520661156,0.0
1650361741011.946,216.08108108108107,0.0
1650361741012.808,215.84297520661156,0.0
1650361741036.377,216.08108108108107,0.0
1650361741037.607,216.08108108108107,0.0
1650361741037.6821,216.08108108108107,0.0
1650361741039.0042,216.08108108108107,0.0
1650361741046.407,216.08108108108107,0.0
1650361741071.414,215.84297520661156,0.0
1650361741071.534,216.31971286581995,0.0
1650361741072.743,215.84297520661156,0.0
1650361741095.1792,216.31971286581995,0.0
1650361741096.431,216.31971286581995,0.0
1650361741096.625,216.08108108108107,0.0
1650361741104.1711,216.31971286581995,0.0
1650361741105.289,216.08108108108107,0.0
1650361741105.46,216.08108108108107,0.0
1650361741131.541,216.31971286581995,0.0
1650361741132.7751,216.08108108108107,0.0
1650361741157.805,216.31971286581995,0.0
1650361741159.008,216.08108108108107,0.0
1650361741159.218,216.31971286581995,0.0
1650361741167.511,216.31971286581995,0.0
1650361741191.4412,216.31971286581995,0.0
1650361741191.601,216.31971286581995,0.0
1650361741192.744,216.31971286581995,0.0
1650361741217.865,216.31971286581995,0.0
1650361741218.977,216.31971286581995,0.0
1650361741219.1511,216.08108108108107,0.0
1650361741221.599,216.55887230514094,0.0
1650361741222.8342,216.31971286581995,0.0
1650361741251.4329,216.31971286581995,0.0
1650361741251.615,216.31971286581995,0.0
1650361741252.796,216.31971286581995,0.0
1650361741279.123,216.31971286581995,0.0
1650361741281.4382,216.31971286581995,0.0
1650361741281.76,216.31971286581995,0.0
1650361741282.867,216.31971286581995,0.0
1650361741284.052,216.31971286581995,0.0
1650361741311.606,216.55887230514094,0.0
1650361741311.864,216.31971286581995,0.0
1650361741312.9238,216.31971286581995,0.0
1650361741336.548,216.55887230514094,0.0
1650361741337.6218,216.08108108108107,0.0
1650361741337.76,216.31971286581995,0.0
1650361741339.0042,216.55887230514094,0.0
1650361741346.631,216.31971286581995,0.0
1650361741371.529,216.31971286581995,0.0
1650361741371.8618,216.08108108108107,0.0
1650361741372.8062,216.31971286581995,0.0
1650361741397.785,216.55887230514094,0.0
1650361741398.959,216.31971286581995,0.0
1650361741399.131,216.31971286581995,0.0
1650361741401.5552,216.31971286581995,0.0
1650361741431.638,216.31971286581995,0.0
1650361741432.6921,216.08108108108107,0.0
1650361741461.527,216.08108108108107,0.0
1650361741461.7341,216.31971286581995,0.0
1650361741462.8652,216.31971286581995,0.0
1650361741465.307,215.84297520661156,0.0
1650361741466.602,216.08108108108107,0.0
1650361741466.9658,216.08108108108107,0.0
1650361741491.536,216.08108108108107,0.0
1650361741492.75,216.08108108108107,0.0
1650361741518.907,215.84297520661156,0.0
1650361741519.081,216.08108108108107,0.0
1650361741521.581,215.84297520661156,0.0
1650361741551.555,216.08108108108107,0.0
1650361741551.696,215.84297520661156,0.0
1650361741551.952,215.84297520661156,0.0
1650361741552.789,215.84297520661156,0.0
1650361741575.732,215.84297520661156,0.0
1650361741577.985,215.60539350577872,0.0
1650361741578.206,215.84297520661156,0.0
1650361741579.246,215.60539350577872,0.0
1650361741581.6282,215.60539350577872,0.0
1650361741611.6719,215.60539350577872,0.0
1650361741611.912,215.60539350577872,0.0
1650361741612.8591,215.60539350577872,0.0
1650361741639.461,215.36833424958766,0.0
1650361741645.509,215.36833424958766,0.0
1650361741645.757,215.36833424958766,0.0
1650361741646.7239,215.13179571663917,0.0
1650361741672.0,215.36833424958766,0.0
1650361741672.844,215.13179571663917,0.0
1650361741673.1091,215.13179571663917,0.0
1650361741698.0,215.13179571663917,0.0
1650361741699.291,214.8957761930883,0.0
1650361741702.6938,214.8957761930883,0.0
1650361741702.888,214.8957761930883,0.0
1650361741704.0579,214.6602739726027,0.0
1650361741705.4392,214.8957761930883,0.0
1650361741731.414,214.42528735632183,0.0
1650361741731.604,214.6602739726027,0.0
1650361741732.7722,214.6602739726027,0.0
1650361741757.884,214.19081465281573,0.0
1650361741759.104,214.42528735632183,0.0
1650361741759.292,214.19081465281573,0.0
1650361741761.6638,214.19081465281573,0.0
1650361741762.684,214.19081465281573,0.0
1650361741789.352,213.95685417804478,0.0
1650361741789.5962,213.72340425531914,0.0
1650361741814.139,213.95685417804478,0.0
1650361741824.2131,213.72340425531914,0.0
1650361741825.192,213.72340425531914,0.0
1650361741825.567,213.49046321525884,0.0
1650361741826.578,213.95685417804478,0.0
1650361741851.868,213.49046321525884,0.0
1650361741852.844,213.25802939575394,0.0
1650361741853.146,213.49046321525884,0.0
1650361741876.939,213.25802939575394,0.0
1650361741877.9531,213.49046321525884,0.0
1650361741878.988,213.02610114192495,0.0
1650361741879.17,213.25802939575394,0.0
1650361741881.734,213.02610114192495,0.0
1650361741911.9202,212.79467680608363,0.0
1650361741912.862,212.79467680608363,0.0
1650361741913.1018,212.79467680608363,0.0
1650361741939.2458,212.56375474769396,0.0
1650361741945.44,212.79467680608363,0.0
1650361741946.605,212.33333333333331,0.0
1650361741946.794,212.56375474769396,0.0
1650361741972.188,212.33333333333331,0.0
1650361741973.0142,212.33333333333331,0.0
1650361741997.968,212.10341093665403,0.0
1650361741998.2542,211.87398593834504,0.0
1650361741999.243,211.87398593834504,0.0
1650361742004.2651,212.10341093665403,0.0
1650361742004.463,211.645056726094,0.0
1650361742004.631,211.87398593834504,0.0
1650361742005.6428,211.87398593834504,0.0
1650361742031.831,211.645056726094,0.0
1650361742032.303,211.645056726094,0.0
1650361742032.782,211.41662169454938,0.0
1650361742056.967,211.41662169454938,0.0
1650361742057.975,211.41662169454938,0.0
1650361742059.085,211.188679245283,0.0
1650361742059.277,211.41662169454938,0.0
1650361742065.542,211.188679245283,0.0
1650361742091.881,210.96122778675283,0.0
1650361742092.139,211.188679245283,0.0
1650361742092.98,210.96122778675283,0.0
1650361742118.223,211.188679245283,0.0
1650361742119.165,210.96122778675283,0.0
1650361742124.458,210.73426573426573,0.0
1650361742124.728,210.96122778675283,0.0
1650361742125.4758,210.73426573426573,0.0
1650361742151.932,210.73426573426573,0.0
1650361742152.96,210.5077915099409,0.0
1650361742153.411,210.73426573426573,0.0
1650361742178.071,210.73426573426573,0.0
1650361742179.38,210.2818035426731,0.0
1650361742185.3298,210.5077915099409,0.0
1650361742185.596,210.2818035426731,0.0
1650361742186.831,210.2818035426731,0.0
1650361742211.6611,210.5077915099409,0.0
1650361742212.826,210.05630026809652,0.0
1650361742213.023,210.2818035426731,0.0
1650361742238.077,210.05630026809652,0.0
1650361742239.369,209.83128012854846,0.0
1650361742246.628,210.05630026809652,0.0
1650361742246.8281,209.83128012854846,0.0
1650361742271.935,209.6067415730337,0.0
1650361742272.9849,209.6067415730337,0.0
1650361742298.218,209.6067415730337,0.0
1650361742298.713,209.6067415730337,0.0
1650361742299.309,209.38268305718867,0.0
1650361742301.6018,209.38268305718867,0.0
1650361742302.885,209.38268305718867,0.0
1650361742303.141,209.15910304324612,0.0
1650361742331.894,209.38268305718867,0.0
1650361742332.9238,209.15910304324612,0.0
1650361742358.023,209.15910304324612,0.0
1650361742358.276,209.38268305718867,0.0
1650361742359.376,209.15910304324612,0.0
1650361742364.176,209.15910304324612,0.0
1650361742366.646,209.15910304324612,0.0
1650361742366.932,208.936,0.0
1650361742391.705,209.15910304324612,0.0
1650361742392.7842,208.936,0.0
1650361742416.417,208.936,0.0
1650361742416.57,208.936,0.0
1650361742417.768,208.936,0.0
1650361742418.914,208.936,0.0
1650361742444.412,208.71337240277037,0.0
1650361742444.6199,208.71337240277037,0.0
1650361742445.639,208.936,0.0
1650361742470.572,208.71337240277037,0.0
1650361742470.767,208.71337240277037,0.0
1650361742471.793,208.4912187333688,0.0
1650361742485.6292,208.4912187333688,0.0
1650361742486.701,208.4912187333688,0.0
1650361742486.959,208.2695374800638,0.0
1650361742512.028,208.4912187333688,0.0
1650361742512.907,208.4912187333688,0.0
1650361742539.268,208.2695374800638,0.0
1650361742541.687,208.2695374800638,0.0
1650361742541.895,208.04832713754647,0.0
1650361742542.833,208.4912187333688,0.0
1650361742543.9702,208.2695374800638,0.0
1650361742571.871,208.04832713754647,0.0
1650361742572.122,208.04832713754647,0.0
1650361742572.9949,208.2695374800638,0.0
1650361742597.886,208.2695374800638,0.0
1650361742599.374,208.04832713754647,0.0
1650361742599.681,208.04832713754647,0.0
1650361742601.717,208.2695374800638,0.0
1650361742602.7542,208.04832713754647,0.0
1650361742627.972,208.04832713754647,0.0
1650361742628.258,208.04832713754647,0.0
1650361742629.103,208.04832713754647,0.0
1650361742654.557,208.04832713754647,0.0
1650361742655.374,207.82758620689654,0.0
1650361742655.566,208.04832713754647,0.0
1650361742659.259,208.04832713754647,0.0
1650361742684.374,208.04832713754647,0.0
1650361742684.571,207.82758620689654,0.0
1650361742685.509,208.04832713754647,0.0
1650361742710.488,207.6073131955485,0.0
1650361742711.561,208.04832713754647,0.0
1650361742711.7368,207.82758620689654,0.0
1650361742724.0442,208.04832713754647,0.0
1650361742725.311,208.04832713754647,0.0
1650361742751.964,207.82758620689654,0.0
1650361742752.6199,207.82758620689654,0.0
1650361742752.7039,207.82758620689654,0.0
1650361742781.599,208.04832713754647,0.0
1650361742782.6619,208.04832713754647,0.0
1650361742782.77,207.6073131955485,0.0
1650361742786.5342,207.82758620689654,0.0
1650361742811.5361,207.82758620689654,0.0
1650361742812.622,207.82758620689654,0.0
1650361742835.15,207.82758620689654,0.0
1650361742835.341,207.82758620689654,0.0
1650361742836.492,208.04832713754647,0.0
1650361742839.06,207.82758620689654,0.0
1650361742841.429,207.6073131955485,0.0
1650361742841.606,207.82758620689654,0.0
1650361742846.51,207.82758620689654,0.0
1650361742877.902,207.6073131955485,0.0
1650361742879.032,207.6073131955485,0.0
1650361742891.877,207.82758620689654,0.0
1650361742894.184,207.82758620689654,0.0
1650361742895.324,207.82758620689654,0.0
1650361742895.557,207.82758620689654,0.0
1650361742896.5098,207.82758620689654,0.0
1650361742906.596,207.82758620689654,0.0
1650361742940.325,208.04832713754647,0.0
1650361742951.853,207.82758620689654,0.0
1650361742952.1128,207.82758620689654,0.0
1650361742954.175,207.82758620689654,0.0
1650361742955.475,207.82758620689654,0.0
1650361742956.476,208.04832713754647,0.0
1650361742956.623,207.82758620689654,0.0
1650361742984.386,207.82758620689654,0.0
1650361742985.148,208.2695374800638,0.0
1650361743014.466,207.82758620689654,0.0
1650361743014.717,208.04832713754647,0.0
1650361743015.5498,208.04832713754647,0.0
1650361743016.468,208.04832713754647,0.0
1650361743026.956,208.04832713754647,0.0
1650361743027.168,207.82758620689654,0.0
1650361743051.784,208.04832713754647,0.0
1650361743052.633,208.04832713754647,0.0
1650361743075.244,208.2695374800638,0.0
1650361743075.623,208.4912187333688,0.0
1650361743076.66,208.2695374800638,0.0
1650361743077.6528,208.2695374800638,0.0
1650361743110.71,208.2695374800638,0.0
1650361743111.2212,208.2695374800638,0.0
1650361743111.5051,208.4912187333688,0.0
1650361743129.103,208.2695374800638,0.0
1650361743130.327,208.2695374800638,74.72527472527472
1650361743130.6191,208.4912187333688,278.38827838827837
1650361743131.563,208.2695374800638,509.89010989010984
1650361743141.4648,208.4912187333688,735.5311355311355
1650361743170.178,208.2695374800638,934.7985347985348
1650361743170.343,208.2695374800638,1103.2967032967033
1650361743171.479,208.4912187333688,1236.6300366300366
1650361743196.585,208.4912187333688,1337.7289377289376
1650361743201.4128,208.4912187333688,1410.989010989011
1650361743201.604,208.4912187333688,1463.7362637362637
1650361743202.792,208.4912187333688,1495.970695970696
1650361743203.922,208.4912187333688,1510.6227106227104
1650361743230.185,208.4912187333688,1511.3553113553112
1650361743230.325,208.71337240277037,1500.3663003663003
1650361743231.482,208.71337240277037,1476.1904761904761
1650361743250.3928,208.4912187333688,1445.4212454212454
1650361743256.809,208.936,1408.058608058608
1650361743257.09,208.4912187333688,1367.7655677655678
1650361743257.144,208.71337240277037,1324.5421245421244
1650361743262.636,208.936,1284.2490842490843
1650361743262.738,208.71337240277037,1249.084249084249
1650361743291.565,208.71337240277037,1219.7802197802198
1650361743292.824,208.936,1198.5347985347985
1650361743316.507,208.936,1186.080586080586
1650361743317.659,208.936,1181.6849816849815
1650361743317.916,208.71337240277037,1186.080586080586
1650361743319.0688,208.936,1198.5347985347985
1650361743322.735,209.15910304324612,1214.6520146520145
1650361743350.25,209.15910304324612,1235.8974358974358
1650361743350.447,209.15910304324612,1263.003663003663
1650361743367.891,209.15910304324612,1289.3772893772893
1650361743369.091,209.38268305718867,1314.2857142857142
1650361743371.554,209.38268305718867,1337.7289377289376
1650361743371.775,209.38268305718867,1355.3113553113553
1650361743381.885,209.38268305718867,1364.102564102564
1650361743406.825,209.15910304324612,1369.9633699633698
1650361743407.637,209.38268305718867,1369.230769230769
1650361743407.7449,209.38268305718867,1364.102564102564
1650361743431.7678,209.38268305718867,1353.113553113553
1650361743431.934,209.83128012854846,1334.7985347985348
1650361743431.965,209.38268305718867,1312.087912087912
1650361743434.109,209.6067415730337,1287.179487179487
1650361743441.541,209.6067415730337,1258.6080586080586
1650361743467.8481,209.83128012854846,1230.7692307692307
1650361743468.4082,209.6067415730337,1202.197802197802
1650361743468.516,209.83128012854846,1175.0915750915751
1650361743494.072,209.83128012854846,1148.7179487179487
1650361743495.173,209.83128012854846,1123.8095238095236
1650361743496.5042,209.83128012854846,1100.3663003663003
1650361743496.653,209.83128012854846,1078.3882783882784
1650361743501.563,209.83128012854846,1060.07326007326
1650361743529.377,209.83128012854846,1046.1538461538462
1650361743554.042,210.05630026809652,1033.6996336996335
1650361743554.2441,209.83128012854846,1025.6410256410256
1650361743555.564,210.05630026809652,1020.5128205128204
1650361743557.881,210.05630026809652,1016.117216117216
1650361743558.9312,210.2818035426731,1014.6520146520146
1650361743559.0479,210.05630026809652,1015.3846153846154
1650361743565.647,210.2818035426731,1017.5824175824175
1650361743591.64,209.83128012854846,1021.2454212454212
1650361743592.627,210.2818035426731,1027.8388278388277
1650361743592.7178,210.2818035426731,1034.4322344322343
1650361743614.151,210.2818035426731,1042.4908424908424
1650361743615.278,210.5077915099409,1052.014652014652
1650361743617.729,210.2818035426731,1060.07326007326
1650361743618.001,210.5077915099409,1068.8644688644688
1650361743644.0188,210.5077915099409,1075.4578754578754
1650361743645.185,210.5077915099409,1083.5164835164835
1650361743673.947,210.5077915099409,1088.6446886446886
1650361743674.0579,210.5077915099409,1093.7728937728937
1650361743675.242,210.5077915099409,1095.970695970696
1650361743676.517,210.73426573426573,1099.6336996336995
1650361743678.863,210.73426573426573,1101.098901098901
1650361743679.001,210.73426573426573,1104.7619047619046
1650361743710.3691,210.73426573426573,1108.4249084249084
1650361743711.445,210.96122778675283,1112.8205128205127
1650361743731.451,210.73426573426573,1118.6813186813185
1650361743731.598,210.73426573426573,1122.3443223443223
1650361743734.0542,210.73426573426573,1122.3443223443223
1650361743735.127,210.73426573426573,1122.3443223443223
1650361743745.34,210.96122778675283,1121.6117216117216
1650361743745.6619,210.96122778675283,1121.6117216117216
1650361743771.535,211.188679245283,1118.6813186813185
1650361743772.6208,210.96122778675283,1115.018315018315
1650361743772.736,211.188679245283,1109.1575091575091
1650361743795.4531,210.96122778675283,1104.7619047619046
1650361743796.5032,211.188679245283,1098.168498168498
1650361743797.676,211.188679245283,1090.8424908424909
1650361743803.959,211.41662169454938,1083.5164835164835
1650361743804.153,211.188679245283,1076.1904761904761
1650361743829.234,211.41662169454938,1069.5970695970695
1650361743854.008,211.41662169454938,1063.003663003663
1650361743855.203,211.188679245283,1057.8754578754579
1650361743855.4932,211.188679245283,1054.9450549450548
1650361743856.598,211.188679245283,1050.5494505494505
1650361743857.6501,211.41662169454938,1046.8864468864467
1650361743857.753,211.645056726094,1042.4908424908424
1650361743891.623,211.188679245283,1040.2930402930401
1650361743893.022,211.645056726094,1035.164835164835
1650361743913.9258,211.645056726094,1030.7692307692307
1650361743915.227,211.645056726094,1024.1758241758241
1650361743915.458,211.645056726094,1017.5824175824175
1650361743916.512,211.645056726094,1009.5238095238094
1650361743917.63,211.645056726094,1003.6630036630036
1650361743917.779,211.87398593834504,999.2673992673992
1650361743946.512,211.645056726094,998.5347985347985
1650361743947.702,211.645056726094,998.5347985347985
1650361743973.905,211.645056726094,1002.9304029304028
1650361743975.433,211.87398593834504,1016.8498168498168
1650361743975.689,211.645056726094,1046.1538461538462
1650361743979.1318,211.87398593834504,1097.4358974358975
1650361743981.513,212.10341093665403,1173.6263736263736
1650361744017.8882,211.87398593834504,1279.8534798534797
1650361744018.022,211.87398593834504,1413.9194139194137
1650361744019.0352,211.87398593834504,1566.3003663003662
1650361744031.585,212.10341093665403,1734.065934065934
1650361744031.982,212.10341093665403,1910.6227106227104
1650361744034.2332,211.87398593834504,2088.6446886446884
1650361744035.5989,212.10341093665403,2256.4102564102564
1650361744045.1929,212.10341093665403,2405.8608058608056
1650361744045.354,211.87398593834504,2531.8681318681315
1650361744071.603,212.10341093665403,2624.908424908425
1650361744076.8262,212.10341093665403,2683.5164835164833
1650361744097.76,212.10341093665403,2704.029304029304
1650361744097.9531,212.33333333333331,2688.6446886446884
1650361744099.069,212.10341093665403,2638.8278388278386
1650361744101.537,212.56375474769396,2556.7765567765564
1650361744102.634,212.33333333333331,2450.5494505494503
1650361744129.0159,212.56375474769396,2326.7399267399264
1650361744129.3372,212.56375474769396,2194.139194139194
1650361744155.3508,212.56375474769396,2054.945054945055
1650361744155.514,212.56375474769396,1914.2857142857142
1650361744159.013,212.79467680608363,1782.4175824175823
1650361744159.1301,212.56375474769396,1663.7362637362637
1650361744184.0342,212.79467680608363,1559.7069597069597
1650361744184.273,212.79467680608363,1471.7948717948716
1650361744184.308,212.79467680608363,1398.5347985347985
1650361744185.344,213.02610114192495,1342.8571428571427
1650361744214.139,213.02610114192495,1301.8315018315018
1650361744215.183,213.25802939575394,1273.260073260073
1650361744215.3982,213.02610114192495,1255.6776556776556
1650361744221.539,213.02610114192495,1245.4212454212454
1650361744222.864,213.25802939575394,1241.0256410256409
1650361744249.0461,212.79467680608363,1238.095238095238
1650361744249.3948,213.25802939575394,1235.8974358974358
1650361744276.491,213.25802939575394,1232.2344322344322
1650361744277.7751,213.25802939575394,1227.8388278388277
1650361744279.444,213.49046321525884,1222.7106227106226
1650361744279.592,213.25802939575394,1219.047619047619
1650361744281.554,213.49046321525884,1218.3150183150183
1650361744282.801,213.49046321525884,1224.9084249084249
1650361744317.801,213.02610114192495,1235.8974358974358
1650361744317.954,213.72340425531914,1252.7472527472526
1650361744320.669,213.49046321525884,1273.9926739926739
1650361744334.044,213.72340425531914,1297.4358974358975
1650361744335.227,213.72340425531914,1323.076923076923
1650361744336.3782,214.19081465281573,1347.985347985348
1650361744336.5059,214.19081465281573,1372.161172161172
1650361744346.526,213.95685417804478,1391.9413919413919
1650361744385.295,214.19081465281573,1408.058608058608
1650361744385.578,214.19081465281573,1418.3150183150183
1650361744386.574,213.95685417804478,1419.7802197802198
1650361744387.76,214.42528735632183,1414.6520146520145
1650361744388.896,214.6602739726027,1402.9304029304028
1650361744389.048,214.8957761930883,1386.080586080586
1650361744399.157,214.8957761930883,1365.5677655677655
1650361744424.04,215.13179571663917,1339.9267399267399
1650361744425.138,215.60539350577872,1312.8205128205127
1650361744450.263,215.84297520661156,1282.7838827838827
1650361744450.5059,216.08108108108107,1254.212454212454
1650361744452.419,216.31971286581995,1224.9084249084249
1650361744457.811,216.7985611510791,1197.069597069597
1650361744458.906,217.27953410981695,1172.8937728937728
1650361744459.021,217.76264591439684,1153.113553113553
1650361744484.108,218.2479108635097,1136.9963369963368
1650361744510.261,219.47058823529414,1126.007326007326
1650361744511.4019,220.4586381541925,1119.4139194139193
1650361744511.539,221.20553359683797,1115.018315018315
1650361744517.7979,221.957507082153,1113.5531135531135
1650361744519.0889,222.46166950596253,1113.5531135531135
1650361744524.157,222.96812749003988,1117.2161172161173
1650361744524.328,223.22222222222226,1123.076923076923
1650361744546.552,223.98799313893656,1131.8681318681317
1650361744547.585,224.2444190040069,1139.194139194139
1650361744575.352,224.2444190040069,1147.2527472527472
1650361744576.133,224.50143266475646,1155.3113553113553
1650361744576.4019,224.50143266475646,1164.102564102564
1650361744579.02,224.2444190040069,1172.161172161172
1650361744581.523,224.50143266475646,1178.7545787545787
1650361744581.789,223.98799313893656,1186.080586080586
1650361744611.54,223.98799313893656,1194.1391941391942
1650361744612.752,223.98799313893656,1202.197802197802
1650361744636.353,223.22222222222226,1212.4542124542124
1650361744636.529,222.7146105741899,1220.5128205128203
1650361744638.3108,221.957507082153,1228.5714285714284
1650361744638.983,221.20553359683797,1233.6996336996335
1650361744664.042,219.96350364963507,1239.5604395604396
1650361744664.284,218.9798770262717,1241.7582417582416
1650361744665.4712,218.73534338358462,1240.2930402930401
1650361744689.024,218.00500834724537,1238.8278388278388
1650361744691.386,217.5208217656857,1236.6300366300366
1650361744691.4922,217.03878116343486,1236.6300366300366
1650361744694.104,216.55887230514094,1235.164835164835
1650361744701.61,216.31971286581995,1232.967032967033
1650361744731.42,215.60539350577872,1229.3040293040292
1650361744731.617,215.13179571663917,1224.1758241758241
1650361744732.7659,215.13179571663917,1216.8498168498168
1650361744752.834,214.6602739726027,1210.2564102564102
1650361744755.2048,214.42528735632183,1202.9304029304028
1650361744755.4531,213.95685417804478,1197.069597069597
1650361744756.651,213.49046321525884,1192.6739926739926
1650361744764.041,213.25802939575394,1187.5457875457876
1650361744764.356,213.02610114192495,1182.4175824175823
1650361744791.521,212.56375474769396,1175.0915750915751
1650361744793.513,212.33333333333331,1165.5677655677655
1650361744816.48,212.10341093665403,1156.7765567765566
1650361744817.96,211.87398593834504,1147.2527472527472
1650361744818.202,211.41662169454938,1137.7289377289376
1650361744819.129,211.41662169454938,1128.2051282051282
1650361744822.741,210.96122778675283,1123.076923076923
1650361744851.581,210.73426573426573,1117.9487179487178
1650361744851.9111,210.5077915099409,1115.7509157509157
1650361744854.907,210.2818035426731,1113.5531135531135
1650361744871.686,210.05630026809652,1112.087912087912
1650361744875.201,209.6067415730337,1109.1575091575091
1650361744875.5159,209.38268305718867,1106.9597069597069
1650361744876.858,209.15910304324612,1106.227106227106
1650361744906.533,208.71337240277037,1106.227106227106
1650361744906.854,208.4912187333688,1107.6923076923076
1650361744907.752,208.2695374800638,1107.6923076923076
1650361744934.023,208.04832713754647,1106.227106227106
1650361744935.157,207.82758620689654,1104.7619047619046
1650361744938.3171,207.6073131955485,1102.5641025641025
1650361744938.5222,207.1681649920677,1099.6336996336995
1650361744939.492,206.94928684627575,1096.7032967032967
1650361744968.942,206.73087071240107,1094.5054945054944
1650361744988.363,206.5129151291513,1094.5054945054944
1650361744988.5408,206.0783798001052,1102.5641025641025
1650361744988.998,205.8617971623752,1120.14652014652
1650361744990.199,205.6456692913386,1154.5787545787546
1650361744993.885,205.0,1214.6520146520145
1650361744993.997,204.78567694720337,1299.6336996336995
1650361745001.6191,204.57180156657964,1409.5238095238094
1650361745031.44,204.35837245696402,1539.9267399267399
1650361745031.6929,204.35837245696402,1689.3772893772893
1650361745032.939,203.7207488299532,1848.3516483516482
1650361745058.379,203.7207488299532,2010.2564102564102
1650361745058.646,203.29787234042556,2165.5677655677655
1650361745058.836,203.08709175738727,2307.6923076923076
1650361745058.868,202.87674779906786,2428.5714285714284
1650361745062.768,202.45736434108528,2520.14652014652
1650361745087.7932,202.24832214765104,2580.21978021978
1650361745089.463,202.24832214765104,2600.7326007326005
1650361745089.7642,201.8315301391036,2589.010989010989
1650361745114.1602,201.62377766340714,2544.322344322344
1650361745115.576,201.20955315870572,2470.32967032967
1650361745124.062,201.20955315870572,2369.230769230769
1650361745124.244,201.0030785017958,2253.4798534798533
1650361745125.3008,200.5913978494624,2125.274725274725
1650361745151.656,200.5913978494624,1991.9413919413919
1650361745152.637,200.18140010219727,1863.003663003663
1650361745152.741,199.97702909647782,1742.124542124542
1650361745176.5088,199.97702909647782,1630.7692307692307
1650361745177.787,199.56953642384101,1535.5311355311355
1650361745178.8818,199.36641221374043,1454.9450549450548
1650361745179.0,199.16370106761562,1393.4065934065934
1650361745204.187,199.16370106761562,1347.2527472527472
1650361745205.7952,198.96140172676482,1315.018315018315
1650361745230.3071,198.7595129375951,1293.040293040293
1650361745230.49,198.35696202531642,1279.8534798534797
1650361745231.528,198.35696202531642,1270.3296703296703
1650361745246.4248,198.1562974203338,1263.7362637362637
1650361745271.6328,197.95603840323392,1261.5384615384614
1650361745271.915,197.55673222390317,1260.8058608058607
1650361745272.756,197.35768261964733,1264.4688644688645
1650361745301.562,197.35768261964733,1268.131868131868
1650361745301.92,197.1590337191746,1274.7252747252746
1650361745302.736,196.76293319939728,1282.051282051282
1650361745304.022,196.76293319939728,1292.3076923076922
1650361745311.461,196.5654791771199,1304.7619047619046
1650361745312.614,196.5654791771199,1320.14652014652
1650361745312.7698,196.17175763645466,1339.194139194139
1650361745314.021,195.97548774387192,1359.7069597069597
1650361745324.09,195.97548774387192,1383.150183150183
1650361745334.013,195.58412381427857,1408.7912087912086
1650361745334.1528,195.58412381427857,1432.9670329670328
1650361745360.473,195.38902743142143,1454.9450549450548
1650361745384.024,195.0,1473.260073260073
1650361745385.174,194.80606663351566,1486.4468864468863
1650361745385.373,194.41935483870967,1494.5054945054944
1650361745391.65,194.41935483870967,1495.2380952380952
1650361745395.185,194.03417533432392,1489.3772893772893
1650361745395.4429,193.8421573478476,1476.1904761904761
1650361745395.473,193.45925925925926,1458.6080586080584
1650361745420.406,193.26837691169214,1435.8974358974358
1650361745421.5342,193.26837691169214,1408.7912087912086
1650361745445.144,193.0778708723509,1380.2197802197802
1650361745445.44,192.69798327594688,1349.4505494505493
1650361745446.872,192.5085995085995,1317.216117216117
1650361745447.768,192.31958762886597,1283.5164835164835
1650361745481.804,192.13094654242275,1249.8168498168498
1650361745482.111,191.7547723935389,1219.7802197802198
1650361745483.461,191.7547723935389,1194.1391941391942
1650361745509.1838,191.56723716381418,1173.6263736263736
1650361745512.605,191.3800683927699,1157.5091575091574
1650361745512.706,191.19326500732063,1144.3223443223442
1650361745513.966,191.00682593856655,1134.065934065934
1650361745515.286,190.82075012177302,1125.2747252747251
1650361745515.422,190.82075012177302,1120.14652014652
1650361745541.646,190.44968400583375,1117.9487179487178
1650361745542.751,190.44968400583375,1117.2161172161173
1650361745565.4011,190.26469159786305,1117.2161172161173
1650361745566.3992,190.26469159786305,1117.9487179487178
1650361745566.594,189.71186440677965,1120.8791208791208
1650361745567.99,189.8957828405235,1126.007326007326
1650361745575.326,189.71186440677965,1132.6007326007325
1650361745602.699,189.52830188679246,1142.857142857143
1650361745602.997,189.3450942484292,1153.113553113553
1650361745603.03,189.3450942484292,1162.6373626373625
1650361745626.502,189.16224046354418,1169.9633699633698
1650361745627.798,189.16224046354418,1177.2893772893772
1650361745627.958,188.9797395079595,1183.8827838827838
1650361745628.987,188.7975903614458,1187.5457875457876
1650361745654.037,188.7975903614458,1191.2087912087911
1650361745654.3591,188.61579200770342,1197.069597069597
1650361745655.27,188.43434343434345,1200.7326007326008
1650361745681.549,188.61579200770342,1205.128205128205
1650361745683.895,188.43434343434345,1208.7912087912086
1650361745685.13,188.43434343434345,1210.989010989011
1650361745685.533,188.25324363286882,1213.1868131868132
1650361745686.6392,188.0724915986558,1214.6520146520145
1650361745724.03,188.0724915986558,1215.3846153846152
1650361745725.114,187.89208633093526,1214.6520146520145
1650361745725.3708,187.71202683277434,1214.6520146520145
1650361745749.096,187.89208633093526,1211.7216117216117
1650361745751.575,187.71202683277434,1210.2564102564102
1650361745753.898,187.71202683277434,1208.7912087912086
1650361745754.014,187.3529411764706,1208.058608058608
1650361745755.2532,187.53231211105793,1205.8608058608058
1650361745781.696,187.3529411764706,1201.4652014652013
1650361745782.892,187.17391304347828,1195.6043956043954
1650361745783.144,186.99522673031026,1189.7435897435896
1650361745811.5261,187.17391304347828,1183.150183150183
1650361745812.6309,186.99522673031026,1175.0915750915751
1650361745813.9119,186.99522673031026,1168.4981684981685
1650361745814.029,186.63887565507386,1161.904761904762
1650361745824.2742,186.81688125894135,1158.974358974359
1650361745826.394,186.81688125894135,1153.8461538461538
1650361745836.568,186.81688125894135,1151.6483516483515
1650361745836.932,186.63887565507386,1150.9157509157508
1650361745844.1821,186.46120894811995,1145.7875457875457
1650361745869.007,186.63887565507386,1140.6593406593406
1650361745895.169,186.46120894811995,1137.7289377289376
1650361745895.467,186.28388017118405,1136.9963369963368
1650361745895.5332,186.28388017118405,1138.4615384615383
1650361745905.293,186.28388017118405,1141.3919413919414
1650361745906.6538,186.28388017118405,1149.4505494505493
1650361745906.791,186.28388017118405,1167.7655677655678
1650361745909.033,186.10688836104515,1197.069597069597
1650361745939.023,186.28388017118405,1245.4212454212454
1650361745940.228,186.10688836104515,1316.4835164835165
1650361745965.379,186.10688836104515,1409.5238095238094
1650361745966.527,186.10688836104515,1524.5421245421244
1650361745968.991,186.10688836104515,1661.5384615384614
1650361745969.2842,185.7539118065434,1809.5238095238094
1650361745970.252,185.93023255813955,1964.8351648351647
1650361745971.534,185.93023255813955,2117.948717948718
1650361745996.418,185.93023255813955,2257.875457875458
1650361745996.572,185.7539118065434,2379.487179487179
1650361746021.672,185.93023255813955,2472.5274725274726
1650361746022.74,185.93023255813955,2532.6007326007325
1650361746026.573,185.7539118065434,2556.7765567765564
1650361746026.918,185.93023255813955,2549.4505494505493
1650361746029.0078,185.7539118065434,2511.355311355311
1650361746030.272,185.7539118065434,2445.421245421245
1650361746055.238,185.4022716516801,2358.241758241758
1650361746056.689,185.7539118065434,2252.747252747253
1650361746056.953,185.5779251539555,2134.7985347985345
1650361746081.6218,185.5779251539555,2010.989010989011
1650361746081.951,185.5779251539555,1887.179487179487
1650361746092.7788,185.5779251539555,1769.9633699633698
1650361746093.088,185.5779251539555,1663.003663003663
1650361746094.041,185.7539118065434,1567.7655677655678
1650361746119.205,185.7539118065434,1487.9120879120878
1650361746143.894,185.5779251539555,1424.9084249084249
1650361746144.063,185.5779251539555,1377.2893772893772
1650361746145.315,185.5779251539555,1339.194139194139
1650361746146.528,185.4022716516801,1313.5531135531135
1650361746148.982,185.5779251539555,1295.970695970696
1650361746149.282,185.4022716516801,1283.5164835164835
1650361746174.011,185.4022716516801,1271.7948717948716
1650361746175.2231,185.5779251539555,1262.2710622710622
1650361746202.689,185.4022716516801,1254.9450549450548
1650361746202.999,185.4022716516801,1250.5494505494505
1650361746207.3728,185.4022716516801,1248.3516483516482
1650361746209.219,185.4022716516801,1246.8864468864467
1650361746210.5552,185.4022716516801,1250.5494505494505
1650361746210.704,185.22695035460995,1258.6080586080586
1650361746239.156,185.22695035460995,1270.3296703296703
1650361746240.132,185.0519603212093,1287.9120879120878
1650361746264.048,185.4022716516801,1312.087912087912
1650361746264.376,185.0519603212093,1338.4615384615383
1650361746265.5781,185.0519603212093,1367.032967032967
1650361746266.498,185.0519603212093,1394.8717948717947
1650361746270.162,185.0519603212093,1421.245421245421
1650361746270.3298,184.87730061349694,1444.6886446886447
1650361746299.1929,184.87730061349694,1463.003663003663
1650361746300.514,184.87730061349694,1476.1904761904761
1650361746326.52,184.87730061349694,1484.9816849816848
1650361746326.896,184.70297029702974,1486.4468864468863
1650361746329.122,184.87730061349694,1482.051282051282
1650361746332.054,184.87730061349694,1471.7948717948716
1650361746332.303,184.87730061349694,1454.212454212454
1650361746332.3591,184.70297029702974,1432.2344322344322
1650361746359.118,184.70297029702974,1405.128205128205
1650361746360.779,184.70297029702974,1374.3589743589744
1650361746386.397,184.70297029702974,1342.8571428571427
1650361746386.665,184.70297029702974,1312.087912087912
1650361746389.052,184.70297029702974,1282.051282051282
1650361746390.296,184.70297029702974,1253.4798534798533
1650361746417.651,184.52896844088556,1227.106227106227
1650361746417.796,184.52896844088556,1204.3956043956043
1650361746419.008,184.52896844088556,1183.150183150183
1650361746437.799,184.70297029702974,1167.7655677655678
1650361746441.894,184.52896844088556,1154.5787545787546
1650361746442.088,184.35529411764708,1145.7875457875457
1650361746444.469,184.35529411764708,1138.4615384615383
1650361746450.263,184.18194640338507,1133.3333333333333
1650361746450.5068,184.18194640338507,1131.135531135531
1650361746485.375,184.18194640338507,1133.3333333333333
1650361746486.543,184.0089243776421,1136.2637362637363
1650361746497.694,184.18194640338507,1141.3919413919414
1650361746498.974,184.0089243776421,1145.054945054945
1650361746499.273,183.83622712341625,1149.4505494505493
1650361746514.017,183.6638537271449,1153.8461538461538
1650361746539.157,183.6638537271449,1156.7765567765566
1650361746540.751,183.6638537271449,1159.7069597069597
1650361746540.97,183.32007487131492,1163.3699633699632
1650361746565.44,183.32007487131492,1169.9633699633698
1650361746566.781,183.32007487131492,1176.5567765567764
1650361746568.9832,183.148667601683,1185.3479853479853
1650361746569.322,182.97758056982715,1195.6043956043954
1650361746570.563,182.97758056982715,1203.6630036630036
1650361746571.594,182.97758056982715,1210.2564102564102
1650361746598.999,182.80681287914138,1214.6520146520145
1650361746599.14,182.63636363636363,1218.3150183150183
1650361746600.2632,182.80681287914138,1221.9780219780218
1650361746621.802,182.80681287914138,1224.1758241758241
1650361746623.862,182.4662319515603,1222.7106227106226
1650361746624.12,182.4662319515603,1219.047619047619
1650361746625.313,182.12691771269175,1214.6520146520145
1650361746659.2332,182.29641693811072,1212.4542124542124
1650361746660.736,182.12691771269175,1209.5238095238094
1650361746660.875,181.9577333952624,1206.5934065934066
1650361746682.882,181.9577333952624,1200.7326007326008
1650361746684.4102,181.7888631090487,1192.6739926739926
1650361746685.396,181.28412771864876,1183.8827838827838
1650361746686.543,181.45206113941637,1171.4285714285713
1650361746688.978,181.28412771864876,1158.974358974359
1650361746725.129,181.28412771864876,1145.054945054945
1650361746725.5981,181.45206113941637,1128.937728937729
1650361746726.5762,181.28412771864876,1114.2857142857142
1650361746737.884,181.1165048543689,1100.3663003663003
1650361746738.905,181.1165048543689,1090.10989010989
1650361746741.435,181.1165048543689,1084.2490842490843
1650361746741.633,180.9491916859122,1082.7838827838827
1650361746777.761,180.9491916859122,1083.5164835164835
1650361746778.923,180.9491916859122,1084.2490842490843
1650361746779.0981,180.9491916859122,1087.179487179487
1650361746796.5068,180.44910179640718,1090.10989010989
1650361746797.728,180.61549100968188,1092.3076923076922
1650361746798.887,180.61549100968188,1092.3076923076922
1650361746809.273,180.7821873557914,1094.5054945054944
1650361746809.57,180.61549100968188,1095.970695970696
1650361746814.042,180.7821873557914,1095.970695970696
1650361746841.42,180.61549100968188,1097.4358974358975
1650361746842.66,180.9491916859122,1098.9010989010987
1650361746842.8901,180.61549100968188,1101.098901098901
1650361746862.911,180.44910179640718,1105.4945054945053
1650361746863.85,180.61549100968188,1110.6227106227107
1650361746865.264,180.61549100968188,1115.018315018315
1650361746865.505,180.44910179640718,1118.6813186813185
1650361746898.242,180.44910179640718,1121.6117216117216
1650361746898.9812,180.61549100968188,1125.2747252747251
1650361746919.073,180.44910179640718,1129.6703296703297
1650361746919.361,180.44910179640718,1138.4615384615383
1650361746923.982,180.44910179640718,1155.3113553113553
1650361746924.285,180.61549100968188,1188.278388278388
1650361746930.273,180.7821873557914,1241.0256410256409
1650361746930.376,180.2830188679245,1322.3443223443223
1650361746966.637,180.44910179640718,1430.7692307692307
1650361746967.702,180.44910179640718,1567.032967032967
1650361746967.866,180.44910179640718,1725.2747252747251
1650361746977.867,180.11724137931034,1897.4358974358972
1650361746979.039,180.2830188679245,2072.5274725274726
1650361746981.463,180.2830188679245,2243.223443223443
1650361746991.471,180.2830188679245,2397.8021978021975
1650361746991.608,180.11724137931034,2531.135531135531
1650361747025.352,180.11724137931034,2632.967032967033
1650361747026.399,180.11724137931034,2697.4358974358975
1650361747026.551,180.2830188679245,2725.274725274725
1650361747039.143,179.78659935750343,2720.14652014652
1650361747041.6592,179.6217331499312,2679.8534798534797
1650361747042.6272,179.2929061784897,2609.523809523809
1650361747071.415,179.2929061784897,2512.8205128205127
1650361747071.5352,179.12894375857337,2401.4652014652015
1650361747072.7761,179.12894375857337,2276.190476190476
1650361747097.676,178.63885088919287,2145.7875457875457
1650361747097.809,178.4760820045558,2013.9194139194137
1650361747097.838,178.1514324693042,1886.4468864468863
1650361747098.991,177.9895502044525,1765.5677655677655
1650361747109.0,177.9895502044525,1654.9450549450548
1650361747138.963,177.66666666666666,1559.7069597069597
1650361747139.226,177.5056637970095,1481.3186813186812
1650361747160.342,177.34495246717972,1419.7802197802198
1650361747162.0332,177.18453188602442,1375.8241758241757
1650361747162.599,177.0244012652508,1342.8571428571427
1650361747162.6812,177.0244012652508,1321.6117216117216
1650361747164.065,176.8645598194131,1308.4249084249084
1650361747170.37,176.8645598194131,1300.3663003663003
1650361747200.1072,176.70500676589987,1293.7728937728937
1650361747200.257,176.70500676589987,1290.8424908424909
1650361747220.263,176.54574132492112,1287.9120879120878
1650361747221.484,176.70500676589987,1284.9816849816848
1650361747222.647,176.54574132492112,1284.2490842490843
1650361747222.819,176.38676271949572,1284.9816849816848
1650361747223.988,176.54574132492112,1288.6446886446886
1650361747251.397,176.38676271949572,1295.2380952380952
1650361747251.528,176.38676271949572,1307.6923076923076
1650361747252.743,176.38676271949572,1323.076923076923
1650361747282.844,176.2280701754386,1338.4615384615383
1650361747283.875,176.2280701754386,1358.2417582417581
1650361747284.092,175.91154018859453,1379.4871794871794
1650361747285.313,175.91154018859453,1399.2673992673992
1650361747286.541,175.91154018859453,1418.3150183150183
1650361747311.4778,175.75370121130553,1434.4322344322343
1650361747311.723,175.5961452263559,1448.3516483516482
1650361747313.194,175.5961452263559,1459.3406593406592
1650361747337.757,175.43887147335423,1464.4688644688645
1650361747338.8938,175.5961452263559,1463.7362637362637
1650361747339.001,175.5961452263559,1460.07326007326
1650361747349.052,175.5961452263559,1452.7472527472526
1650361747350.2651,175.43887147335423,1440.2930402930401
1650361747378.926,175.28187919463087,1421.245421245421
1650361747380.147,175.5961452263559,1396.3369963369962
1650361747380.319,175.28187919463087,1368.4981684981683
1650361747401.519,175.28187919463087,1335.5311355311355
1650361747402.7668,175.43887147335423,1303.2967032967033
1650361747403.882,175.43887147335423,1273.260073260073
1650361747404.0698,175.28187919463087,1247.6190476190475
1650361747405.478,175.28187919463087,1224.9084249084249
1650361747431.541,175.28187919463087,1208.7912087912086
1650361747432.639,175.43887147335423,1192.6739926739926
1650361747432.888,175.28187919463087,1178.021978021978
1650361747457.85,175.43887147335423,1164.8351648351647
1650361747459.069,174.9687360428763,1154.5787545787546
1650361747468.91,175.28187919463087,1145.7875457875457
1650361747469.069,175.12516763522575,1138.4615384615383
1650361747470.2239,175.28187919463087,1132.6007326007325
1650361747505.311,175.28187919463087,1128.937728937729
1650361747505.5461,175.28187919463087,1127.4725274725274
1650361747506.539,175.12516763522575,1130.4029304029302
1650361747521.491,175.28187919463087,1133.3333333333333
1650361747522.66,175.28187919463087,1135.5311355311355
1650361747522.829,175.43887147335423,1136.9963369963368
1650361747524.185,175.12516763522575,1139.194139194139
1650361747551.627,175.12516763522575,1140.6593406593406
1650361747552.67,175.28187919463087,1142.857142857143
1650361747577.8289,175.12516763522575,1145.7875457875457
1650361747578.0571,175.12516763522575,1148.7179487179487
1650361747579.05,175.12516763522575,1150.18315018315
1650361747588.9011,175.12516763522575,1153.113553113553
1650361747590.1238,175.28187919463087,1156.7765567765566
1650361747590.2861,174.9687360428763,1158.974358974359
1650361747591.4768,174.9687360428763,1162.6373626373625
1650361747619.035,174.9687360428763,1165.5677655677655
1650361747620.102,174.9687360428763,1166.3003663003662
1650361747620.261,175.12516763522575,1167.7655677655678
1650361747644.032,174.81258366800537,1169.9633699633698
1650361747645.246,174.9687360428763,1172.161172161172
1650361747646.48,175.12516763522575,1173.6263736263736
1650361747646.7148,174.9687360428763,1173.6263736263736
1650361747671.671,174.9687360428763,1174.3589743589744
1650361747672.885,174.9687360428763,1176.5567765567764
1650361747702.6401,174.9687360428763,1177.2893772893772
1650361747702.7532,175.12516763522575,1178.021978021978
1650361747705.333,174.9687360428763,1178.7545787545787
1650361747706.499,175.28187919463087,1178.7545787545787
1650361747710.301,175.12516763522575,1177.2893772893772
1650361747710.427,175.12516763522575,1177.2893772893772
1650361747739.1602,175.28187919463087,1177.2893772893772
1650361747740.1719,175.43887147335423,1177.2893772893772
1650361747762.75,175.43887147335423,1180.2197802197802
1650361747763.001,175.43887147335423,1187.5457875457876
1650361747764.005,175.28187919463087,1194.8717948717947
1650361747765.272,175.43887147335423,1200.7326007326008
1650361747772.692,175.5961452263559,1204.3956043956043
1650361747772.9102,175.43887147335423,1203.6630036630036
1650361747812.905,175.75370121130553,1200.0
1650361747813.8362,175.75370121130553,1192.6739926739926
1650361747815.42,175.91154018859453,1183.8827838827838
1650361747815.624,175.75370121130553,1176.5567765567764
1650361747816.453,175.91154018859453,1170.6959706959706
1650361747824.059,176.0696629213483,1164.8351648351647
1650361747834.066,176.0696629213483,1159.7069597069597
1650361747834.309,176.0696629213483,1158.2417582417581
1650361747864.023,176.2280701754386,1156.0439560439559
1650361747876.471,176.38676271949572,1154.5787545787546
1650361747876.6602,176.54574132492112,1153.113553113553
1650361747877.715,176.54574132492112,1151.6483516483515
1650361747879.666,176.54574132492112,1147.2527472527472
1650361747889.1821,176.8645598194131,1142.1245421245421
1650361747915.152,176.8645598194131,1137.7289377289376
1650361747915.3298,177.0244012652508,1133.3333333333333
1650361747916.504,177.34495246717972,1128.937728937729
1650361747936.35,177.34495246717972,1121.6117216117216
1650361747936.479,177.5056637970095,1115.018315018315
1650361747937.64,177.66666666666666,1110.6227106227107
1650361747937.8308,177.66666666666666,1109.1575091575091
1650361747949.4988,177.9895502044525,1113.5531135531135
1650361747949.669,177.9895502044525,1127.4725274725274
1650361747977.7788,177.9895502044525,1153.8461538461538
1650361747978.9888,178.31360946745562,1199.2673992673992
1650361748001.466,178.4760820045558,1266.6666666666665
1650361748002.656,178.63885088919287,1360.4395604395604
1650361748002.783,178.63885088919287,1477.6556776556777
1650361748004.0122,178.80191693290735,1616.117216117216
1650361748011.552,179.12894375857337,1772.161172161172
1650361748052.663,178.96528095020557,1939.9267399267399
1650361748052.809,179.12894375857337,2109.8901098901097
1650361748053.996,179.12894375857337,2271.7948717948716
1650361748055.321,179.2929061784897,2419.047619047619
1650361748055.704,179.2929061784897,2546.520146520146
1650361748056.571,179.12894375857337,2649.0842490842488
1650361748066.636,179.12894375857337,2721.6117216117214
1650361748093.896,179.2929061784897,2762.6373626373625
1650361748095.281,179.4571690334402,2769.230769230769
1650361748095.4211,179.4571690334402,2746.520146520146
1650361748121.5579,179.4571690334402,2690.10989010989
1650361748122.629,179.6217331499312,2609.523809523809
1650361748126.579,179.95176848874596,2504.7619047619046
1650361748126.7732,180.11724137931034,2383.8827838827838
1650361748129.035,180.11724137931034,2252.014652014652
1650361748153.9841,180.44910179640718,2116.4835164835163
1650361748155.479,180.7821873557914,1981.6849816849815
1650361748155.74,180.7821873557914,1857.142857142857
1650361748181.598,180.9491916859122,1741.3919413919414
1650361748183.154,181.1165048543689,1641.7582417582416
1650361748192.581,181.1165048543689,1556.0439560439559
1650361748192.72,181.1165048543689,1486.4468864468863
1650361748194.111,181.28412771864876,1431.5018315018315
1650361748219.157,181.1165048543689,1390.4761904761904
1650361748220.2239,181.45206113941637,1359.7069597069597
1650361748220.542,181.28412771864876,1336.263736263736
1650361748241.575,181.45206113941637,1314.2857142857142
1650361748242.634,181.62030598052849,1296.7032967032967
1650361748243.967,181.45206113941637,1279.8534798534797
1650361748244.0542,181.45206113941637,1264.4688644688645
1650361748254.113,181.62030598052849,1252.014652014652
1650361748278.899,181.62030598052849,1244.6886446886447
1650361748280.114,181.9577333952624,1239.5604395604396
1650361748280.258,181.7888631090487,1241.0256410256409
1650361748300.283,181.9577333952624,1244.6886446886447
1650361748308.922,181.9577333952624,1251.2820512820513
1650361748309.091,182.12691771269175,1262.2710622710622
1650361748339.13,182.12691771269175,1278.3882783882782
1650361748340.584,182.29641693811072,1296.7032967032967
1650361748364.004,182.4662319515603,1317.216117216117
1650361748364.1592,182.63636363636363,1339.9267399267399
1650361748365.256,182.4662319515603,1363.3699633699632
1650361748366.558,182.63636363636363,1384.6153846153845
1650361748370.1638,182.80681287914138,1403.6630036630036
1650361748371.522,183.148667601683,1413.9194139194137
1650361748371.713,183.32007487131492,1423.4432234432234
1650361748397.898,183.32007487131492,1427.106227106227
1650361748398.9001,183.148667601683,1431.5018315018315
1650361748399.036,183.4918032786885,1434.4322344322343
1650361748417.819,183.148667601683,1440.2930402930401
1650361748419.068,183.32007487131492,1438.8278388278388
1650361748421.385,183.32007487131492,1435.8974358974358
1650361748421.541,183.4918032786885,1428.5714285714284
1650361748431.522,183.4918032786885,1416.8498168498168
1650361748459.187,183.6638537271449,1399.2673992673992
1650361748460.1592,183.83622712341625,1374.3589743589744
1650361748460.326,184.0089243776421,1347.2527472527472
1650361748480.278,184.0089243776421,1317.9487179487178
1650361748481.581,184.18194640338507,1285.7142857142856
1650361748482.606,184.18194640338507,1254.212454212454
1650361748511.488,184.52896844088556,1223.4432234432234
1650361748511.708,184.18194640338507,1195.6043956043954
1650361748512.792,184.18194640338507,1169.230769230769
1650361748538.902,184.35529411764708,1145.054945054945
1650361748539.037,184.35529411764708,1125.2747252747251
1650361748545.34,184.35529411764708,1109.89010989011
1650361748546.669,184.35529411764708,1096.7032967032967
1650361748548.918,184.35529411764708,1087.179487179487
1650361748554.048,184.52896844088556,1080.5860805860805
1650361748554.2659,184.35529411764708,1073.9926739926739
1650361748579.031,184.35529411764708,1068.8644688644688
1650361748580.163,184.52896844088556,1065.2014652014652
1650361748580.272,184.52896844088556,1063.003663003663
1650361748597.815,184.35529411764708,1063.7362637362637
1650361748599.087,184.35529411764708,1063.7362637362637
1650361748606.4082,184.35529411764708,1063.7362637362637
1650361748606.56,184.52896844088556,1065.2014652014652
1650361748645.344,184.35529411764708,1068.131868131868
1650361748646.468,184.52896844088556,1071.7948717948718
1650361748657.775,184.35529411764708,1075.4578754578754
1650361748658.057,184.70297029702974,1076.1904761904761
1650361748659.045,184.35529411764708,1079.8534798534797
1650361748661.572,184.52896844088556,1083.5164835164835
1650361748671.567,184.70297029702974,1090.8424908424909
1650361748671.697,184.52896844088556,1097.4358974358975
1650361748699.149,184.52896844088556,1104.7619047619046
1650361748700.416,184.52896844088556,1111.3553113553112
1650361748721.441,184.70297029702974,1116.4835164835165
1650361748721.649,184.87730061349694,1123.8095238095236
1650361748722.805,184.70297029702974,1130.4029304029302
1650361748724.026,184.70297029702974,1136.9963369963368
1650361748731.451,184.87730061349694,1140.6593406593406
1650361748731.612,184.87730061349694,1144.3223443223442
1650361748759.073,185.0519603212093,1145.7875457875457
1650361748760.313,185.0519603212093,1144.3223443223442
1650361748785.2969,185.0519603212093,1141.3919413919414
1650361748785.5999,185.4022716516801,1137.7289377289376
1650361748786.5332,185.22695035460995,1134.065934065934
1650361748791.544,185.22695035460995,1131.8681318681317
1650361748792.616,185.4022716516801,1130.4029304029302
1650361748817.679,185.4022716516801,1128.2051282051282
1650361748817.913,185.22695035460995,1129.6703296703297
1650361748819.0369,185.4022716516801,1128.937728937729
1650361748835.253,185.4022716516801,1130.4029304029302
1650361748836.446,185.4022716516801,1131.8681318681317
1650361748836.582,185.22695035460995,1135.5311355311355
1650361748846.596,185.4022716516801,1138.4615384615383
1650361748871.5352,185.5779251539555,1144.3223443223442
1650361748871.777,185.4022716516801,1150.18315018315
1650361748872.724,185.5779251539555,1155.3113553113553
1650361748905.253,185.5779251539555,1159.7069597069597
1650361748906.49,185.7539118065434,1166.3003663003662
1650361748906.749,185.7539118065434,1172.161172161172
1650361748909.089,185.7539118065434,1180.952380952381
1650361748910.264,185.7539118065434,1186.8131868131868
1650361748938.901,185.7539118065434,1192.6739926739926
1650361748939.058,185.7539118065434,1197.069597069597
1650361748940.236,185.7539118065434,1196.3369963369962
1650361748961.4949,185.93023255813955,1194.1391941391942
1650361748962.614,185.93023255813955,1192.6739926739926
1650361748962.7322,185.93023255813955,1189.0109890109889
1650361748963.979,186.10688836104515,1186.080586080586
1650361748971.639,186.10688836104515,1183.150183150183
1650361748998.276,185.93023255813955,1180.952380952381
1650361748998.478,186.28388017118405,1179.4871794871794
1650361748998.922,186.10688836104515,1175.8241758241757
1650361749015.361,186.28388017118405,1173.6263736263736
1650361749016.376,186.46120894811995,1175.0915750915751
1650361749016.5251,186.46120894811995,1183.150183150183
1650361749023.98,186.10688836104515,1205.128205128205
1650361749034.066,186.63887565507386,1243.2234432234432
1650361749058.949,186.63887565507386,1304.0293040293038
1650361749059.144,186.46120894811995,1386.8131868131868
1650361749060.271,186.63887565507386,1490.10989010989
1650361749083.983,186.81688125894135,1613.9194139194137
1650361749088.909,186.81688125894135,1750.9157509157508
1650361749089.083,186.99522673031026,1893.7728937728937
1650361749090.303,186.81688125894135,2036.6300366300366
1650361749115.287,186.81688125894135,2168.4981684981685
1650361749116.426,186.99522673031026,2283.5164835164833
1650361749142.633,187.17391304347828,2375.8241758241757
1650361749142.7761,186.99522673031026,2441.0256410256407
1650361749143.955,186.99522673031026,2474.7252747252746
1650361749145.0989,187.3529411764706,2476.190476190476
1650361749145.258,187.3529411764706,2445.421245421245
1650361749146.503,187.3529411764706,2393.4065934065934
1650361749177.763,187.3529411764706,2317.948717948718
1650361749178.917,187.53231211105793,2223.4432234432234
1650361749197.653,187.71202683277434,2115.7509157509157
1650361749197.8691,187.53231211105793,2005.8608058608056
1650361749199.089,187.53231211105793,1893.040293040293
1650361749201.466,187.71202683277434,1783.150183150183
1650361749201.742,187.89208633093526,1678.3882783882782
1650361749211.5,187.71202683277434,1583.8827838827838
1650361749236.516,187.89208633093526,1498.9010989010987
1650361749258.913,187.89208633093526,1429.3040293040292
1650361749261.407,188.0724915986558,1375.091575091575
1650361749261.539,187.89208633093526,1336.263736263736
1650361749262.764,188.0724915986558,1312.087912087912
1650361749263.9648,187.89208633093526,1296.7032967032967
1650361749273.8901,188.0724915986558,1288.6446886446886
1650361749274.004,188.0724915986558,1284.2490842490843
1650361749305.269,188.25324363286882,1281.3186813186812
1650361749306.521,188.25324363286882,1277.6556776556777
1650361749317.575,188.25324363286882,1276.1904761904761
1650361749317.7349,188.25324363286882,1276.1904761904761
1650361749318.951,188.25324363286882,1273.260073260073
1650361749322.766,188.43434343434345,1273.260073260073
1650361749351.511,188.43434343434345,1274.7252747252746
1650361749351.777,188.43434343434345,1279.8534798534797
1650361749352.74,188.61579200770342,1286.4468864468863
1650361749377.73,188.61579200770342,1300.3663003663003
1650361749378.9011,188.61579200770342,1318.6813186813185
1650361749379.035,188.61579200770342,1340.6593406593406
1650361749386.537,188.61579200770342,1365.5677655677655
1650361749411.602,188.7975903614458,1390.4761904761904
1650361749412.638,188.7975903614458,1417.5824175824175
1650361749412.8262,188.61579200770342,1441.0256410256409
1650361749439.07,188.9797395079595,1458.6080586080584
1650361749448.903,188.7975903614458,1471.7948717948716
1650361749450.072,188.9797395079595,1480.5860805860805
1650361749450.197,188.7975903614458,1487.179487179487
1650361749451.478,188.7975903614458,1485.7142857142856
1650361749452.604,188.9797395079595,1476.923076923077
1650361749479.079,188.9797395079595,1461.5384615384614
1650361749479.344,188.7975903614458,1440.2930402930401
1650361749480.5552,188.9797395079595,1414.6520146520145
1650361749498.904,188.9797395079595,1387.5457875457876
1650361749501.44,189.16224046354418,1358.2417582417581
1650361749501.67,188.9797395079595,1327.4725274725274
1650361749502.7349,188.9797395079595,1296.7032967032967
1650361749512.762,189.16224046354418,1266.6666666666665
1650361749545.1692,188.9797395079595,1238.8278388278388
1650361749545.333,189.16224046354418,1213.1868131868132
1650361749546.497,188.9797395079595,1189.7435897435896
1650361749556.504,189.16224046354418,1171.4285714285713
1650361749559.0352,189.16224046354418,1154.5787545787546
1650361749559.1929,188.9797395079595,1142.1245421245421
1650361749562.8618,189.16224046354418,1134.7985347985348
1650361749572.7341,189.16224046354418,1130.4029304029302
1650361749598.887,189.16224046354418,1127.4725274725274
1650361749599.0232,189.3450942484292,1125.2747252747251
1650361749600.224,189.16224046354418,1123.8095238095236
1650361749621.561,189.3450942484292,1122.3443223443223
1650361749623.8252,189.3450942484292,1122.3443223443223
1650361749623.944,189.3450942484292,1123.8095238095236
1650361749625.336,189.3450942484292,1123.8095238095236
1650361749653.982,189.52830188679246,1128.2051282051282
1650361749655.188,189.52830188679246,1130.4029304029302
1650361749655.323,189.3450942484292,1135.5311355311355
1650361749681.67,189.3450942484292,1141.3919413919414
1650361749682.7231,189.52830188679246,1147.985347985348
1650361749691.419,189.52830188679246,1153.8461538461538
1650361749691.661,189.52830188679246,1160.4395604395604
1650361749692.7969,189.52830188679246,1165.5677655677655
1650361749719.009,189.3450942484292,1171.4285714285713
1650361749720.0889,189.52830188679246,1177.2893772893772
1650361749720.1929,189.71186440677965,1183.150183150183
1650361749742.759,189.52830188679246,1187.5457875457876
1650361749743.9102,189.71186440677965,1189.7435897435896
1650361749744.021,189.71186440677965,1191.9413919413919
1650361749751.563,189.71186440677965,1194.8717948717947
1650361749786.427,189.71186440677965,1198.5347985347985
1650361749787.0059,189.71186440677965,1198.5347985347985
1650361749787.1301,189.71186440677965,1197.069597069597
1650361749787.951,189.71186440677965,1192.6739926739926
1650361749801.49,189.8957828405235,1188.278388278388
1650361749805.13,189.71186440677965,1181.6849816849815
1650361749806.33,189.8957828405235,1175.0915750915751
1650361749806.428,189.8957828405235,1169.9633699633698
1650361749814.128,189.71186440677965,1165.5677655677655
1650361749838.9941,190.08005822416303,1161.1721611721612
1650361749839.298,189.8957828405235,1160.4395604395604
1650361749840.259,189.8957828405235,1158.974358974359
1650361749860.637,190.08005822416303,1156.7765567765566
1650361749861.332,189.8957828405235,1155.3113553113553
1650361749862.602,190.08005822416303,1154.5787545787546
1650361749862.747,190.08005822416303,1157.5091575091574
1650361749891.501,190.08005822416303,1159.7069597069597
1650361749892.801,190.26469159786305,1162.6373626373625
1650361749919.057,190.26469159786305,1164.8351648351647
1650361749919.338,190.08005822416303,1167.032967032967
1650361749921.546,190.08005822416303,1167.032967032967
1650361749922.7341,190.26469159786305,1166.3003663003662
1650361749931.416,190.26469159786305,1164.8351648351647
1650361749931.551,190.08005822416303,1164.102564102564
1650361749962.774,190.26469159786305,1161.904761904762
1650361749963.938,190.26469159786305,1158.974358974359
1650361749964.151,190.44968400583375,1154.5787545787546
1650361749984.0369,190.26469159786305,1151.6483516483515
1650361749985.291,190.26469159786305,1149.4505494505493
1650361749986.3638,190.26469159786305,1147.985347985348
1650361749988.981,190.63503649635038,1146.5201465201465
1650361749989.357,190.26469159786305,1150.18315018315
1650361750018.952,190.44968400583375,1157.5091575091574
1650361750020.2588,190.44968400583375,1174.3589743589744
1650361750043.8882,190.44968400583375,1205.8608058608058
1650361750044.03,190.44968400583375,1258.6080586080586
1650361750045.5251,190.44968400583375,1334.7985347985348
1650361750046.512,190.44968400583375,1435.164835164835
1650361750078.9412,190.44968400583375,1556.7765567765566
1650361750079.148,190.26469159786305,1694.5054945054944
1650361750080.272,190.44968400583375,1845.4212454212452
1650361750102.7341,190.44968400583375,1999.9999999999998
1650361750102.9192,190.63503649635038,2150.915750915751
1650361750104.024,190.44968400583375,2293.040293040293
1650361750105.206,190.44968400583375,2415.3846153846152
1650361750106.322,190.63503649635038,2513.5531135531132
1650361750131.419,190.44968400583375,2581.6849816849817
1650361750131.626,190.44968400583375,2619.047619047619
1650361750132.718,190.44968400583375,2624.175824175824
1650361750161.499,190.44968400583375,2599.267399267399
1650361750161.748,190.63503649635038,2545.7875457875457
1650361750162.7668,190.44968400583375,2468.131868131868
1650361750171.5269,190.44968400583375,2369.230769230769
1650361750172.6191,190.63503649635038,2255.6776556776554
1650361750204.0151,190.82075012177302,2131.135531135531
1650361750204.2961,190.63503649635038,2002.9304029304028
1650361750217.867,190.63503649635038,1871.7948717948716
1650361750221.57,190.63503649635038,1750.18315018315
1650361750222.6118,190.82075012177302,1639.5604395604394
1650361750222.767,190.63503649635038,1545.054945054945
1650361750223.998,190.63503649635038,1467.3992673992673
1650361750234.001,190.82075012177302,1405.128205128205
1650361750258.999,190.63503649635038,1356.0439560439559
1650361750260.312,190.82075012177302,1316.4835164835165
1650361750284.125,190.82075012177302,1285.7142857142856
1650361750285.1091,191.00682593856655,1263.003663003663
1650361750285.342,191.00682593856655,1241.7582417582416
1650361750286.478,190.63503649635038,1225.6410256410256
1650361750289.0452,190.82075012177302,1212.4542124542124
1650361750318.886,190.82075012177302,1201.4652014652013
1650361750319.205,190.63503649635038,1193.4065934065934
1650361750320.3162,190.82075012177302,1186.8131868131868
1650361750341.644,190.82075012177302,1182.4175824175823
1650361750342.6052,190.82075012177302,1180.952380952381
1650361750342.724,190.82075012177302,1186.8131868131868
1650361750343.958,190.63503649635038,1202.197802197802
1650361750345.301,191.00682593856655,1219.7802197802198
1650361750371.54,190.82075012177302,1240.2930402930401
1650361750371.839,191.00682593856655,1265.9340659340658
1650361750373.043,190.82075012177302,1293.040293040293
1650361750397.749,190.44968400583375,1321.6117216117216
1650361750398.8901,191.00682593856655,1347.985347985348
1650361750398.999,190.82075012177302,1371.4285714285713
1650361750399.03,190.82075012177302,1392.6739926739926
1650361750406.91,190.82075012177302,1405.8608058608058
1650361750435.221,190.63503649635038,1415.3846153846152
1650361750436.522,190.63503649635038,1420.5128205128203
1650361750436.757,190.44968400583375,1418.3150183150183
1650361750461.5159,190.44968400583375,1407.3260073260071
1650361750462.733,190.63503649635038,1390.4761904761904
1650361750465.118,190.44968400583375,1367.7655677655678
1650361750465.3179,190.44968400583375,1342.8571428571427
1650361750466.5571,190.44968400583375,1316.4835164835165
1650361750491.535,190.44968400583375,1287.179487179487
1650361750492.6091,190.63503649635038,1255.6776556776556
1650361750492.805,190.26469159786305,1224.1758241758241
1650361750521.514,190.44968400583375,1194.8717948717947
1650361750522.654,190.44968400583375,1168.4981684981685
1650361750522.768,190.63503649635038,1145.054945054945
1650361750530.342,190.44968400583375,1125.2747252747251
1650361750531.547,190.44968400583375,1107.6923076923076
1650361750565.1719,190.44968400583375,1093.7728937728937
1650361750566.3901,190.63503649635038,1082.7838827838827
1650361750566.522,190.44968400583375,1073.260073260073
1650361750577.857,190.63503649635038,1068.131868131868
1650361750579.019,190.44968400583375,1066.6666666666665
1650361750585.6929,190.44968400583375,1067.3992673992673
1650361750585.907,190.44968400583375,1071.062271062271
1650361750611.513,190.63503649635038,1076.923076923077
1650361750612.732,190.63503649635038,1083.5164835164835
1650361750638.967,190.44968400583375,1093.040293040293
1650361750639.141,190.44968400583375,1101.8315018315018
1650361750641.5479,190.44968400583375,1109.89010989011
1650361750643.421,190.44968400583375,1115.7509157509157
1650361750667.772,190.63503649635038,1120.14652014652
1650361750668.052,190.44968400583375,1125.2747252747251
1650361750668.999,190.44968400583375,1130.4029304029302
1650361750696.5151,190.63503649635038,1136.2637362637363
1650361750706.52,190.63503649635038,1142.1245421245421
1650361750706.816,190.63503649635038,1149.4505494505493
1650361750709.083,190.63503649635038,1155.3113553113553
1650361750710.46,190.44968400583375,1160.4395604395604
1650361750710.592,190.63503649635038,1164.8351648351647
1650361750711.492,190.44968400583375,1168.4981684981685
1650361750750.3381,190.44968400583375,1170.6959706959706
1650361750751.43,190.63503649635038,1169.9633699633698
1650361750757.641,190.63503649635038,1167.032967032967
1650361750757.81,190.44968400583375,1165.5677655677655
1650361750758.969,190.44968400583375,1164.102564102564
1650361750761.437,190.44968400583375,1165.5677655677655
1650361750761.57,190.63503649635038,1167.032967032967
1650361750771.616,190.26469159786305,1167.032967032967
1650361750798.9858,190.63503649635038,1167.7655677655678
1650361750800.125,190.44968400583375,1169.9633699633698
1650361750822.64,190.63503649635038,1169.9633699633698
1650361750822.808,190.44968400583375,1169.9633699633698
1650361750823.976,190.44968400583375,1167.7655677655678
1650361750825.372,190.63503649635038,1164.8351648351647
1650361750853.964,190.63503649635038,1161.904761904762
1650361750854.247,190.44968400583375,1159.7069597069597
1650361750855.263,190.63503649635038,1156.7765567765566
1650361750879.0122,190.44968400583375,1153.8461538461538
1650361750879.145,190.63503649635038,1150.18315018315
1650361750881.4832,190.63503649635038,1147.2527472527472
1650361750881.66,190.44968400583375,1144.3223443223442
1650361750888.949,190.63503649635038,1140.6593406593406
1650361750889.2988,190.82075012177302,1136.9963369963368
1650361750921.501,190.63503649635038,1136.2637362637363
1650361750922.7249,190.63503649635038,1134.065934065934
1650361750943.8938,190.63503649635038,1132.6007326007325
1650361750945.2031,190.82075012177302,1130.4029304029302
1650361750945.341,190.63503649635038,1130.4029304029302
1650361750947.255,190.63503649635038,1129.6703296703297
1650361750948.999,190.82075012177302,1131.135531135531
1650361750973.9758,190.63503649635038,1133.3333333333333
1650361750974.235,190.63503649635038,1136.9963369963368
1650361750975.322,190.82075012177302,1141.3919413919414
1650361750999.0,190.82075012177302,1144.3223443223442
1650361751001.506,190.82075012177302,1144.3223443223442
1650361751001.8052,190.63503649635038,1145.7875457875457
1650361751003.487,190.82075012177302,1144.3223443223442
1650361751012.895,190.82075012177302,1143.5897435897434
1650361751038.99,190.44968400583375,1145.054945054945
1650361751039.249,190.63503649635038,1142.857142857143
1650361751040.252,190.82075012177302,1143.5897435897434
1650361751066.5,190.82075012177302,1143.5897435897434
1650361751070.114,190.82075012177302,1145.054945054945
1650361751070.2578,190.63503649635038,1146.5201465201465
1650361751071.482,190.82075012177302,1150.18315018315
1650361751072.723,190.82075012177302,1157.5091575091574
1650361751112.684,190.82075012177302,1172.8937728937728
1650361751112.8672,190.82075012177302,1202.197802197802
1650361751114.206,190.82075012177302,1248.3516483516482
1650361751117.7239,191.00682593856655,1317.9487179487178
1650361751121.787,190.63503649635038,1412.4542124542124
1650361751122.021,190.63503649635038,1531.135531135531
1650361751126.608,190.82075012177302,1669.5970695970695
1650361751161.478,190.82075012177302,1822.7106227106226
1650361751161.6199,190.82075012177302,1984.6153846153845
1650361751162.834,190.63503649635038,2144.322344322344
1650361751179.072,190.82075012177302,2290.842490842491
1650361751181.427,190.82075012177302,2418.3150183150183
1650361751182.6328,190.82075012177302,2521.6117216117214
1650361751182.816,190.82075012177302,2597.069597069597
1650361751189.069,191.00682593856655,2635.164835164835
1650361751225.327,190.63503649635038,2642.490842490842
1650361751225.546,191.00682593856655,2615.3846153846152
1650361751226.543,190.82075012177302,2559.7069597069594
1650361751237.736,191.00682593856655,2477.6556776556777
1650361751238.8489,191.00682593856655,2376.556776556776
1650361751246.382,191.00682593856655,2258.6080586080584
1650361751246.4868,191.00682593856655,2136.263736263736
1650361751277.7341,191.00682593856655,2008.058608058608
1650361751278.962,191.00682593856655,1882.051282051282
1650361751299.1099,191.19326500732063,1763.3699633699632
1650361751299.236,191.00682593856655,1657.142857142857
1650361751301.4678,191.00682593856655,1562.6373626373625
1650361751302.625,191.19326500732063,1482.7838827838827
1650361751303.854,191.19326500732063,1419.7802197802198
1650361751304.013,191.19326500732063,1374.3589743589744
1650361751314.099,191.19326500732063,1342.8571428571427
1650361751338.9658,191.19326500732063,1321.6117216117216
1650361751339.209,191.3800683927699,1309.1575091575091
1650361751340.369,191.19326500732063,1301.8315018315018
1650361751359.098,191.3800683927699,1297.4358974358975
1650361751361.498,191.00682593856655,1293.040293040293
1650361751362.642,191.3800683927699,1286.4468864468863
1650361751362.818,191.3800683927699,1282.051282051282
1650361751391.46,191.00682593856655,1276.923076923077
1650361751393.177,191.00682593856655,1275.4578754578754
1650361751417.634,191.3800683927699,1274.7252747252746
1650361751417.781,191.3800683927699,1276.1904761904761
1650361751418.9402,191.56723716381418,1279.8534798534797
1650361751421.5579,191.3800683927699,1287.179487179487
1650361751429.231,191.56723716381418,1298.9010989010987
1650361751429.5708,191.3800683927699,1317.216117216117
1650361751457.864,191.3800683927699,1338.4615384615383
1650361751458.901,191.56723716381418,1362.6373626373625
1650361751459.0981,191.56723716381418,1385.3479853479853
1650361751479.086,191.56723716381418,1408.058608058608
1650361751481.9,191.56723716381418,1426.3736263736262
1650361751482.982,191.56723716381418,1441.0256410256409
1650361751492.6382,191.7547723935389,1449.084249084249
1650361751492.789,191.56723716381418,1454.9450549450548
1650361751519.0999,191.56723716381418,1454.212454212454
1650361751520.16,191.7547723935389,1449.8168498168498
1650361751520.4111,191.94267515923568,1440.2930402930401
1650361751545.565,191.7547723935389,1424.1758241758241
1650361751546.484,191.56723716381418,1403.6630036630036
1650361751548.874,191.7547723935389,1378.021978021978
1650361751578.9658,191.7547723935389,1350.18315018315
1650361751579.2388,191.56723716381418,1321.6117216117216
1650361751580.2761,191.94267515923568,1293.040293040293
1650361751601.5251,191.94267515923568,1265.9340659340658
1650361751601.824,191.94267515923568,1241.0256410256409
1650361751602.731,191.94267515923568,1217.5824175824175
1650361751603.983,191.94267515923568,1196.3369963369962
1650361751605.188,191.94267515923568,1177.2893772893772
1650361751631.406,192.13094654242275,1160.4395604395604
1650361751631.562,191.7547723935389,1147.2527472527472
1650361751632.719,192.13094654242275,1134.7985347985348
1650361751657.764,191.94267515923568,1126.7399267399267
1650361751658.945,192.13094654242275,1124.5421245421244
1650361751659.085,192.13094654242275,1125.2747252747251
1650361751659.1958,192.13094654242275,1126.7399267399267
1650361751669.0,192.13094654242275,1131.135531135531
1650361751669.3972,191.94267515923568,1137.7289377289376
1650361751699.02,192.13094654242275,1143.5897435897434
1650361751700.234,192.31958762886597,1148.7179487179487
1650361751721.4092,192.13094654242275,1154.5787545787546
1650361751721.597,192.31958762886597,1160.4395604395604
1650361751722.6929,192.13094654242275,1166.3003663003662
1650361751724.0068,192.31958762886597,1170.6959706959706
1650361751731.565,192.5085995085995,1173.6263736263736
1650361751731.8772,192.13094654242275,1180.2197802197802
1650361751757.864,192.31958762886597,1185.3479853479853
1650361751758.97,192.31958762886597,1189.0109890109889
1650361751778.908,192.5085995085995,1194.1391941391942
1650361751779.0378,192.5085995085995,1196.3369963369962
1650361751781.493,192.31958762886597,1199.2673992673992
1650361751782.711,192.5085995085995,1200.7326007326008
1650361751792.725,192.5085995085995,1200.0
1650361751792.961,192.5085995085995,1199.2673992673992
1650361751832.808,192.69798327594688,1200.7326007326008
1650361751834.059,192.5085995085995,1200.7326007326008
1650361751835.156,192.69798327594688,1203.6630036630036
1650361751835.35,192.5085995085995,1204.3956043956043
1650361751836.513,192.5085995085995,1205.128205128205
1650361751851.6182,192.69798327594688,1205.8608058608058
1650361751878.9712,192.5085995085995,1205.128205128205
1650361751880.101,192.69798327594688,1204.3956043956043
1650361751880.286,192.69798327594688,1202.9304029304028
1650361751904.081,192.69798327594688,1200.0
1650361751905.274,192.69798327594688,1195.6043956043954
1650361751906.42,192.69798327594688,1190.4761904761904
1650361751906.595,192.69798327594688,1186.8131868131868
1650361751908.941,192.8877400295421,1183.150183150183
1650361751939.3352,192.69798327594688,1178.7545787545787
1650361751940.324,192.69798327594688,1175.0915750915751
1650361751964.1572,192.8877400295421,1170.6959706959706
1650361751965.2441,192.8877400295421,1164.8351648351647
1650361751966.456,192.8877400295421,1160.4395604395604
1650361751966.707,192.8877400295421,1158.2417582417581
1650361751969.0981,192.8877400295421,1156.0439560439559
1650361751970.27,192.8877400295421,1155.3113553113553
1650361751998.982,192.8877400295421,1156.7765567765566
1650361751999.2349,193.0778708723509,1156.7765567765566
1650361752000.318,193.0778708723509,1157.5091575091574
1650361752025.42,193.0778708723509,1158.974358974359
1650361752026.792,193.0778708723509,1161.1721611721612
1650361752027.065,193.0778708723509,1161.1721611721612
1650361752031.453,193.0778708723509,1161.1721611721612
1650361752032.698,193.0778708723509,1161.904761904762
1650361752058.9658,193.0778708723509,1164.8351648351647
1650361752059.1172,193.26837691169214,1167.032967032967
1650361752060.334,192.8877400295421,1166.3003663003662
1650361752079.0679,193.26837691169214,1164.8351648351647
1650361752081.46,193.26837691169214,1163.3699633699632
1650361752081.633,193.26837691169214,1162.6373626373625
1650361752089.077,193.26837691169214,1163.3699633699632
1650361752119.019,193.26837691169214,1164.8351648351647
1650361752120.31,193.26837691169214,1166.3003663003662
1650361752120.434,193.45925925925926,1167.7655677655678
1650361752143.043,193.26837691169214,1169.9633699633698
1650361752143.9531,193.65051903114187,1171.4285714285713
1650361752145.122,193.26837691169214,1173.6263736263736
1650361752145.3918,193.65051903114187,1173.6263736263736
1650361752146.559,193.26837691169214,1174.3589743589744
1650361752178.978,193.45925925925926,1174.3589743589744
1650361752180.1519,193.45925925925926,1177.2893772893772
1650361752205.1821,193.65051903114187,1181.6849816849815
1650361752205.401,193.45925925925926,1191.9413919413919
1650361752206.449,193.65051903114187,1215.3846153846152
1650361752210.2239,193.65051903114187,1257.8754578754579
1650361752210.426,193.8421573478476,1321.6117216117216
1650361752211.993,193.65051903114187,1412.4542124542124
1650361752238.961,193.45925925925926,1528.2051282051282
1650361752240.108,193.65051903114187,1667.3992673992673
1650361752261.435,193.65051903114187,1821.9780219780218
1650361752261.596,193.65051903114187,1984.6153846153845
1650361752262.711,193.65051903114187,2145.0549450549447
1650361752263.959,193.8421573478476,2293.7728937728934
1650361752271.522,193.8421573478476,2421.245421245421
1650361752271.793,193.8421573478476,2521.6117216117214
1650361752296.612,193.8421573478476,2589.7435897435894
1650361752321.406,193.8421573478476,2624.908424908425
1650361752322.723,193.8421573478476,2625.6410256410254
1650361752322.9102,193.8421573478476,2594.871794871795
1650361752323.991,194.03417533432392,2533.333333333333
1650361752325.926,194.03417533432392,2448.3516483516482
1650361752351.4731,194.03417533432392,2343.5897435897436
1650361752351.6519,194.03417533432392,2224.908424908425
1650361752352.707,194.03417533432392,2098.168498168498
1650361752377.822,194.22657411998017,1969.9633699633698
1650361752385.266,194.22657411998017,1846.153846153846
1650361752385.5059,194.22657411998017,1731.8681318681317
1650361752386.5881,194.41935483870967,1629.3040293040292
1650361752388.9812,194.41935483870967,1538.4615384615383
1650361752416.38,194.22657411998017,1464.4688644688645
1650361752416.485,194.22657411998017,1405.128205128205
1650361752439.035,194.61251862891206,1362.6373626373625
1650361752455.604,194.41935483870967,1334.065934065934
1650361752455.688,194.61251862891206,1317.216117216117
1650361752455.7139,194.41935483870967,1309.1575091575091
1650361752471.505,194.41935483870967,1307.6923076923076
1650361752472.5872,194.61251862891206,1307.6923076923076
1650361752472.7422,194.61251862891206,1309.89010989011
1650361752497.9019,194.61251862891206,1311.3553113553112
1650361752498.998,194.61251862891206,1314.2857142857142
1650361752510.121,194.61251862891206,1314.2857142857142
1650361752510.222,194.61251862891206,1317.9487179487178
1650361752511.48,194.61251862891206,1320.8791208791208
1650361752512.727,194.80606663351566,1325.2747252747251
1650361752513.8792,194.80606663351566,1330.4029304029302
1650361752514.0022,195.0,1338.4615384615383
1650361752539.16,194.80606663351566,1349.4505494505493
1650361752540.397,194.80606663351566,1362.6373626373625
1650361752562.634,195.0,1378.021978021978
1650361752563.896,195.0,1395.6043956043954
1650361752564.0718,194.80606663351566,1414.6520146520145
1650361752565.24,195.0,1433.6996336996335
1650361752591.6208,195.0,1451.2820512820513
1650361752592.6199,194.80606663351566,1467.3992673992673
1650361752592.78,195.0,1476.1904761904761
1650361752617.719,195.0,1482.051282051282
1650361752618.9539,195.19431988041853,1484.2490842490843
1650361752630.121,195.19431988041853,1479.120879120879
1650361752630.35,195.0,1467.3992673992673
1650361752631.541,195.19431988041853,1450.5494505494505
1650361752659.015,195.0,1428.5714285714284
1650361752660.1418,195.19431988041853,1401.4652014652013
1650361752660.337,195.19431988041853,1369.9633699633698
1650361752682.77,195.19431988041853,1337.7289377289376
1650361752684.0479,195.19431988041853,1307.6923076923076
1650361752685.4329,195.19431988041853,1279.120879120879
1650361752686.825,195.38902743142143,1250.5494505494505
1650361752689.023,195.58412381427857,1226.3736263736264
1650361752713.959,195.19431988041853,1205.128205128205
1650361752714.263,195.38902743142143,1187.5457875457876
1650361752715.281,195.38902743142143,1173.6263736263736
1650361752739.135,195.58412381427857,1162.6373626373625
1650361752741.482,195.38902743142143,1153.113553113553
1650361752743.458,195.58412381427857,1143.5897435897434
1650361752743.744,195.58412381427857,1137.7289377289376
1650361752768.96,195.58412381427857,1132.6007326007325
1650361752793.8608,195.58412381427857,1131.135531135531
1650361752794.015,195.58412381427857,1131.8681318681317
1650361752795.2139,195.38902743142143,1134.7985347985348
1650361752804.121,195.58412381427857,1139.9267399267399
1650361752805.103,195.58412381427857,1145.054945054945
1650361752806.4119,195.58412381427857,1148.7179487179487
1650361752806.622,195.77961019490255,1153.8461538461538
1650361752837.727,195.58412381427857,1158.2417582417581
1650361752838.83,195.77961019490255,1166.3003663003662
1650361752838.9321,195.77961019490255,1172.161172161172
1650361752859.0989,195.58412381427857,1178.021978021978
1650361752861.5352,195.77961019490255,1182.4175824175823
1650361752862.5432,195.58412381427857,1186.080586080586
1650361752863.799,195.77961019490255,1188.278388278388
1650361752863.902,195.58412381427857,1191.2087912087911
1650361752891.563,195.77961019490255,1192.6739926739926
1650361752892.715,195.77961019490255,1194.8717948717947
1650361752922.604,195.77961019490255,1195.6043956043954
1650361752922.748,195.77961019490255,1197.8021978021977
1650361752923.981,195.77961019490255,1198.5347985347985
1650361752925.2168,195.77961019490255,1200.0
1650361752928.841,195.77961019490255,1200.0
1650361752928.973,195.77961019490255,1200.0
1650361752957.8298,195.77961019490255,1201.4652014652013
1650361752958.894,195.97548774387192,1205.128205128205
1650361752959.091,195.97548774387192,1207.3260073260074
1650361752977.7961,195.77961019490255,1210.989010989011
1650361752978.993,195.97548774387192,1211.7216117216117
1650361752981.59,195.97548774387192,1211.7216117216117
1650361752991.57,195.97548774387192,1209.5238095238094
1650361752991.7222,195.77961019490255,1208.058608058608
1650361753022.834,195.97548774387192,1205.8608058608058
1650361753023.901,195.97548774387192,1203.6630036630036
1650361753024.14,195.97548774387192,1200.0
1650361753041.6218,195.97548774387192,1198.5347985347985
1650361753042.75,195.97548774387192,1194.1391941391942
1650361753043.877,195.97548774387192,1190.4761904761904
1650361753077.7112,196.17175763645466,1186.8131868131868
1650361753077.992,195.97548774387192,1183.8827838827838
1650361753079.012,195.97548774387192,1179.4871794871794
1650361753097.7239,196.17175763645466,1176.5567765567764
1650361753098.0288,196.17175763645466,1174.3589743589744
1650361753098.999,195.97548774387192,1173.6263736263736
1650361753101.544,196.17175763645466,1173.6263736263736
1650361753102.636,196.17175763645466,1173.6263736263736
1650361753131.423,196.17175763645466,1174.3589743589744
1650361753131.577,195.97548774387192,1175.0915750915751
1650361753132.69,196.17175763645466,1173.6263736263736
1650361753159.002,196.17175763645466,1173.6263736263736
1650361753161.854,196.17175763645466,1172.161172161172
1650361753162.073,196.17175763645466,1171.4285714285713
1650361753162.7979,196.17175763645466,1170.6959706959706
1650361753170.0881,196.36842105263156,1169.230769230769
1650361753196.499,195.97548774387192,1168.4981684981685
1650361753196.627,195.97548774387192,1166.3003663003662
1650361753217.767,196.36842105263156,1165.5677655677655
1650361753218.908,196.17175763645466,1164.8351648351647
1650361753219.084,196.36842105263156,1165.5677655677655
1650361753221.468,196.17175763645466,1167.7655677655678
1650361753222.8032,196.36842105263156,1168.4981684981685
1650361753232.661,196.36842105263156,1169.9633699633698
1650361753258.909,195.97548774387192,1171.4285714285713
1650361753259.089,196.36842105263156,1171.4285714285713
1650361753260.228,196.36842105263156,1173.6263736263736
1650361753280.171,196.17175763645466,1178.7545787545787
1650361753280.446,196.5654791771199,1189.0109890109889
1650361753281.468,196.17175763645466,1208.7912087912086
1650361753282.725,196.17175763645466,1243.956043956044
1650361753291.538,196.36842105263156,1298.9010989010987
1650361753319.0588,196.36842105263156,1375.8241758241757
1650361753319.244,196.36842105263156,1478.3882783882782
1650361753320.212,196.36842105263156,1600.7326007326005
1650361753341.462,196.5654791771199,1741.3919413919414
1650361753342.567,196.36842105263156,1893.040293040293
1650361753342.693,196.17175763645466,2044.6886446886444
1650361753343.934,196.36842105263156,2188.2783882783883
1650361753376.524,196.5654791771199,2319.4139194139193
1650361753376.769,196.5654791771199,2429.304029304029
1650361753394.075,196.36842105263156,2511.355311355311
1650361753395.2688,196.36842105263156,2558.974358974359
1650361753397.771,196.5654791771199,2574.358974358974
1650361753398.032,196.5654791771199,2555.3113553113553
1650361753398.092,196.36842105263156,2505.494505494505
1650361753408.993,196.5654791771199,2429.304029304029
1650361753438.9119,196.36842105263156,2332.6007326007325
1650361753440.1692,196.36842105263156,2220.5128205128203
1650361753440.369,196.5654791771199,2097.4358974358975
1650361753456.5598,196.5654791771199,1972.161172161172
1650361753457.9429,196.5654791771199,1848.3516483516482
1650361753458.12,196.36842105263156,1731.8681318681317
1650361753459.001,196.5654791771199,1621.245421245421
1650361753473.991,196.5654791771199,1524.5421245421244
1650361753499.012,196.5654791771199,1440.2930402930401
1650361753500.101,196.76293319939728,1372.161172161172
1650361753500.234,196.76293319939728,1319.4139194139193
1650361753520.221,196.76293319939728,1281.3186813186812
1650361753521.499,196.76293319939728,1257.142857142857
1650361753522.67,196.76293319939728,1245.4212454212454
1650361753522.951,196.76293319939728,1240.2930402930401
1650361753532.701,196.76293319939728,1242.4908424908424
1650361753558.881,196.76293319939728,1245.4212454212454
1650361753559.0242,196.96078431372547,1249.8168498168498
1650361753560.3508,196.76293319939728,1254.212454212454
1650361753584.0,196.76293319939728,1260.07326007326
1650361753585.223,196.76293319939728,1266.6666666666665
1650361753585.529,196.96078431372547,1273.260073260073
1650361753586.529,196.76293319939728,1284.2490842490843
1650361753611.601,196.96078431372547,1298.168498168498
1650361753612.646,196.96078431372547,1315.018315018315
1650361753612.842,196.96078431372547,1335.5311355311355
1650361753638.181,196.76293319939728,1358.974358974359
1650361753638.963,196.96078431372547,1381.6849816849815
1650361753648.821,196.96078431372547,1406.5934065934066
1650361753648.9219,196.96078431372547,1430.7692307692307
1650361753650.203,196.96078431372547,1453.4798534798533
1650361753678.973,196.96078431372547,1471.7948717948716
1650361753679.221,196.96078431372547,1486.4468864468863
1650361753697.717,196.96078431372547,1497.4358974358972
1650361753698.02,196.76293319939728,1502.5641025641025
1650361753699.1921,197.1590337191746,1502.5641025641025
1650361753701.541,196.96078431372547,1497.4358974358972
1650361753701.843,197.1590337191746,1485.7142857142856
1650361753711.621,196.96078431372547,1467.3992673992673
1650361753739.0598,196.96078431372547,1443.956043956044
1650361753740.133,197.1590337191746,1417.5824175824175
1650361753761.561,197.1590337191746,1386.080586080586
1650361753761.799,197.1590337191746,1352.3809523809523
1650361753762.73,197.1590337191746,1318.6813186813185
1650361753763.914,197.1590337191746,1287.179487179487
1650361753771.581,197.1590337191746,1257.8754578754579
1650361753771.831,197.1590337191746,1230.03663003663
1650361753812.695,197.1590337191746,1206.5934065934066
1650361753814.058,197.35768261964733,1186.8131868131868
1650361753821.4778,197.1590337191746,1170.6959706959706
1650361753821.702,197.35768261964733,1156.7765567765566
1650361753822.702,197.1590337191746,1145.7875457875457
1650361753823.8909,197.35768261964733,1138.4615384615383
1650361753824.0881,197.35768261964733,1134.7985347985348
1650361753834.09,197.35768261964733,1134.065934065934
1650361753866.6191,197.35768261964733,1135.5311355311355
1650361753867.6072,197.35768261964733,1136.2637362637363
1650361753877.689,197.35768261964733,1138.4615384615383
1650361753877.806,197.55673222390317,1143.5897435897434
1650361753878.968,197.35768261964733,1147.2527472527472
1650361753889.049,197.55673222390317,1150.9157509157508
1650361753917.649,197.1590337191746,1154.5787545787546
1650361753917.795,197.35768261964733,1157.5091575091574
1650361753918.9912,197.35768261964733,1162.6373626373625
1650361753937.601,197.35768261964733,1166.3003663003662
1650361753938.8271,197.756183745583,1170.6959706959706
1650361753938.946,197.55673222390317,1177.2893772893772
1650361753941.637,197.55673222390317,1185.3479853479853
1650361753951.6511,197.55673222390317,1192.6739926739926
1650361753951.833,197.55673222390317,1199.2673992673992
1650361753977.718,197.35768261964733,1204.3956043956043
1650361753978.851,197.55673222390317,1210.2564102564102
1650361753978.954,197.55673222390317,1214.6520146520145
1650361753978.99,197.55673222390317,1216.8498168498168
1650361753997.7268,197.55673222390317,1218.3150183150183
1650361753998.951,197.55673222390317,1219.7802197802198
1650361754013.939,197.756183745583,1219.7802197802198
1650361754014.132,197.756183745583,1220.5128205128203
1650361754046.499,197.756183745583,1218.3150183150183
1650361754047.696,197.756183745583,1217.5824175824175
1650361754058.93,197.55673222390317,1217.5824175824175
1650361754061.471,197.756183745583,1214.6520146520145
1650361754061.678,197.756183745583,1211.7216117216117
1650361754062.661,197.756183745583,1207.3260073260074
1650361754072.7898,197.55673222390317,1203.6630036630036
1650361754098.929,197.756183745583,1200.7326007326008
1650361754099.155,197.756183745583,1198.5347985347985
1650361754100.46,197.756183745583,1194.8717948717947
1650361754122.675,197.95603840323392,1193.4065934065934
1650361754123.826,197.95603840323392,1191.2087912087911
1650361754123.991,197.756183745583,1191.2087912087911
1650361754125.251,197.95603840323392,1189.7435897435896
1650361754156.5051,197.95603840323392,1188.278388278388
1650361754178.875,197.95603840323392,1187.5457875457876
1650361754179.037,197.95603840323392,1186.080586080586
1650361754181.522,197.95603840323392,1183.8827838827838
1650361754182.61,197.95603840323392,1181.6849816849815
1650361754183.908,197.95603840323392,1179.4871794871794
1650361754184.155,197.95603840323392,1177.2893772893772
1650361754191.573,197.95603840323392,1174.3589743589744
1650361754216.425,197.756183745583,1172.161172161172
1650361754216.563,197.95603840323392,1172.161172161172
1650361754241.4949,197.95603840323392,1172.8937728937728
1650361754242.697,197.95603840323392,1171.4285714285713
1650361754243.809,198.1562974203338,1167.7655677655678
1650361754245.137,198.1562974203338,1166.3003663003662
1650361754245.378,198.1562974203338,1164.8351648351647
1650361754252.851,197.95603840323392,1162.6373626373625
1650361754282.718,197.95603840323392,1158.974358974359
1650361754283.8691,197.95603840323392,1156.0439560439559
1650361754284.0,197.95603840323392,1155.3113553113553
1650361754301.863,198.1562974203338,1156.0439560439559
1650361754302.5862,198.35696202531642,1159.7069597069597
1650361754302.77,197.756183745583,1169.230769230769
1650361754304.002,198.1562974203338,1189.0109890109889
1650361754314.045,198.1562974203338,1224.1758241758241
1650361754338.99,198.35696202531642,1279.8534798534797
1650361754339.314,198.35696202531642,1358.2417582417581
1650361754340.2368,198.1562974203338,1461.5384615384614
1650361754366.485,198.35696202531642,1585.3479853479853
1650361754368.874,198.1562974203338,1728.2051282051282
1650361754370.041,198.35696202531642,1881.3186813186812
1650361754370.1602,198.55803345159651,2041.0256410256409
1650361754396.484,198.35696202531642,2198.5347985347985
1650361754421.545,198.35696202531642,2346.520146520146
1650361754421.778,198.55803345159651,2471.062271062271
1650361754422.687,198.35696202531642,2571.428571428571
1650361754423.924,198.55803345159651,2637.362637362637
1650361754425.081,198.35696202531642,2669.5970695970695
1650361754425.237,198.55803345159651,2663.7362637362635
1650361754457.7761,198.35696202531642,2623.4432234432234
1650361754458.937,198.35696202531642,2553.846153846154
1650361754477.611,198.55803345159651,2457.875457875458
1650361754477.7478,198.55803345159651,2342.8571428571427
1650361754478.91,198.35696202531642,2215.3846153846152
1650361754481.4702,198.7595129375951,2082.0512820512818
1650361754482.633,198.55803345159651,1950.18315018315
1650361754492.5688,198.55803345159651,1825.6410256410254
1650361754492.699,198.55803345159651,1709.8901098901097
1650361754519.102,198.7595129375951,1605.8608058608058
1650361754520.131,198.7595129375951,1517.9487179487178
1650361754520.244,198.7595129375951,1444.6886446886447
1650361754545.383,198.7595129375951,1388.278388278388
1650361754546.436,198.7595129375951,1346.5201465201465
1650361754548.955,198.7595129375951,1316.4835164835165
1650361754550.083,198.96140172676482,1298.168498168498
1650361754550.497,198.7595129375951,1290.8424908424909
1650361754585.355,198.7595129375951,1287.9120879120878
1650361754586.507,198.96140172676482,1287.9120879120878
1650361754597.637,198.7595129375951,1287.9120879120878
1650361754597.847,198.7595129375951,1289.3772893772893
1650361754598.9512,198.7595129375951,1288.6446886446886
1650361754606.571,198.96140172676482,1289.3772893772893
1650361754642.852,199.16370106761562,1290.10989010989
1650361754643.011,198.7595129375951,1294.5054945054944
1650361754644.0042,198.96140172676482,1301.098901098901
1650361754658.8792,198.96140172676482,1310.6227106227104
1650361754659.031,198.96140172676482,1323.076923076923
1650361754661.45,199.16370106761562,1338.4615384615383
1650361754662.669,198.96140172676482,1354.5787545787546
1650361754668.981,199.16370106761562,1374.3589743589744
1650361754669.322,198.96140172676482,1397.8021978021977
1650361754696.513,198.96140172676482,1421.245421245421
1650361754721.507,199.16370106761562,1443.956043956044
1650361754722.574,199.16370106761562,1465.9340659340658
1650361754722.708,199.16370106761562,1483.5164835164835
1650361754723.9521,199.16370106761562,1493.7728937728937
1650361754725.1948,199.16370106761562,1497.4358974358972
1650361754751.5571,199.36641221374043,1495.2380952380952
1650361754752.599,198.96140172676482,1487.179487179487
1650361754752.774,199.16370106761562,1472.5274725274724
1650361754777.8262,199.36641221374043,1451.2820512820513
1650361754779.047,199.16370106761562,1427.106227106227
1650361754791.429,199.16370106761562,1400.0
1650361754791.638,199.36641221374043,1368.4981684981683
1650361754792.819,199.36641221374043,1336.263736263736
1650361754793.8708,199.56953642384101,1306.227106227106
1650361754819.0242,199.77307496175425,1276.1904761904761
1650361754819.3591,199.77307496175425,1249.084249084249
1650361754843.972,199.56953642384101,1221.245421245421
1650361754845.093,199.77307496175425,1196.3369963369962
1650361754845.257,199.97702909647782,1174.3589743589744
1650361754852.7131,199.56953642384101,1156.7765567765566
1650361754853.995,199.77307496175425,1141.3919413919414
1650361754878.946,199.77307496175425,1131.135531135531
1650361754880.733,199.77307496175425,1125.2747252747251
1650361754881.044,199.77307496175425,1121.6117216117216
1650361754904.0989,199.77307496175425,1119.4139194139193
1650361754905.3892,199.97702909647782,1120.8791208791208
1650361754906.396,199.97702909647782,1121.6117216117216
1650361754906.492,199.77307496175425,1123.8095238095236
1650361754908.978,199.97702909647782,1128.2051282051282
1650361754934.0652,199.77307496175425,1133.3333333333333
1650361754961.492,199.77307496175425,1139.9267399267399
1650361754961.7761,199.97702909647782,1143.5897435897434
1650361754962.7432,199.97702909647782,1147.2527472527472
1650361754966.5662,200.18140010219727,1149.4505494505493
1650361754968.961,199.97702909647782,1153.8461538461538
1650361754969.271,199.97702909647782,1158.2417582417581
1650361754970.303,199.97702909647782,1162.6373626373625
1650361755006.552,199.97702909647782,1165.5677655677655
1650361755006.871,200.18140010219727,1168.4981684981685
1650361755007.722,199.97702909647782,1173.6263736263736
1650361755026.531,199.97702909647782,1178.021978021978
1650361755026.764,200.18140010219727,1180.952380952381
1650361755026.7998,200.18140010219727,1183.8827838827838
1650361755029.027,200.18140010219727,1188.278388278388
1650361755030.281,200.18140010219727,1192.6739926739926
1650361755058.891,199.97702909647782,1197.069597069597
1650361755060.075,200.18140010219727,1199.2673992673992
1650361755060.201,200.18140010219727,1202.197802197802
1650361755082.737,200.18140010219727,1202.197802197802
1650361755083.927,200.38618925831204,1202.9304029304028
1650361755085.1172,199.97702909647782,1202.197802197802
1650361755085.314,200.18140010219727,1200.7326007326008
1650361755111.551,200.18140010219727,1198.5347985347985
1650361755112.643,200.18140010219727,1193.4065934065934
1650361755139.11,200.38618925831204,1189.0109890109889
1650361755139.6611,200.18140010219727,1183.150183150183
1650361755141.4558,200.18140010219727,1176.5567765567764
1650361755142.695,200.38618925831204,1173.6263736263736
1650361755143.792,200.38618925831204,1172.161172161172
1650361755143.914,200.38618925831204,1170.6959706959706
1650361755172.8599,200.18140010219727,1169.230769230769
1650361755173.9111,200.38618925831204,1167.032967032967
1650361755198.945,200.38618925831204,1163.3699633699632
1650361755199.1838,200.38618925831204,1161.904761904762
1650361755201.538,200.5913978494624,1159.7069597069597
1650361755202.7139,200.38618925831204,1158.974358974359
1650361755208.8472,200.5913978494624,1158.2417582417581
1650361755208.984,200.38618925831204,1158.974358974359
1650361755245.5398,200.38618925831204,1158.974358974359
1650361755246.377,200.38618925831204,1158.2417582417581
1650361755257.597,200.5913978494624,1158.974358974359
1650361755257.729,200.38618925831204,1160.4395604395604
1650361755259.033,200.5913978494624,1162.6373626373625
1650361755261.563,200.18140010219727,1162.6373626373625
1650361755286.546,200.5913978494624,1160.4395604395604
1650361755286.794,200.38618925831204,1160.4395604395604
1650361755288.103,200.5913978494624,1161.1721611721612
1650361755313.879,200.5913978494624,1159.7069597069597
1650361755315.0999,200.5913978494624,1158.2417582417581
1650361755315.247,200.5913978494624,1156.7765567765566
1650361755325.424,200.38618925831204,1154.5787545787546
1650361755326.473,200.5913978494624,1156.0439560439559
1650361755333.872,200.5913978494624,1158.974358974359
1650361755334.06,200.5913978494624,1161.1721611721612
1650361755366.56,200.79702716555616,1166.3003663003662
1650361755367.73,200.79702716555616,1179.4871794871794
1650361755378.836,200.5913978494624,1205.8608058608058
1650361755378.98,200.5913978494624,1253.4798534798533
1650361755381.4932,200.5913978494624,1324.5421245421244
1650361755389.067,200.79702716555616,1424.1758241758241
1650361755418.901,200.5913978494624,1553.113553113553
1650361755419.072,200.5913978494624,1704.0293040293038
1650361755420.263,200.79702716555616,1874.7252747252746
1650361755442.635,200.5913978494624,2054.945054945055
1650361755443.8281,200.5913978494624,2238.8278388278386
1650361755443.928,200.5913978494624,2414.6520146520147
1650361755445.3572,200.79702716555616,2571.428571428571
1650361755450.2002,200.5913978494624,2704.7619047619046
1650361755450.4111,200.79702716555616,2783.150183150183
1650361755478.994,200.5913978494624,2784.6153846153843
1650361755480.223,200.79702716555616,2783.8827838827838
1650361755497.6348,200.79702716555616,2783.8827838827838
1650361755498.854,200.79702716555616,2783.8827838827838
1650361755498.9778,200.5913978494624,2758.974358974359
1650361755501.453,200.79702716555616,2676.190476190476
1650361755513.987,201.0030785017958,2560.4395604395604
1650361755514.3489,200.79702716555616,2426.3736263736264
1650361755540.683,201.0030785017958,2276.9230769230767
1650361755541.462,200.79702716555616,2120.879120879121
1650361755561.521,200.79702716555616,1968.4981684981683
1650361755562.587,201.20955315870572,1822.7106227106226
1650361755563.1821,200.79702716555616,1688.6446886446886
1650361755563.926,201.0030785017958,1569.9633699633698
1650361755573.968,201.0030785017958,1470.3296703296703
1650361755574.076,201.0030785017958,1389.7435897435896
1650361755611.489,201.0030785017958,1330.4029304029302
1650361755616.607,201.0030785017958,1285.7142857142856
1650361755617.6082,201.20955315870572,1256.4102564102564
1650361755618.898,201.4164524421594,1239.5604395604396
1650361755619.1152,201.0030785017958,1230.7692307692307
1650361755626.462,201.20955315870572,1224.9084249084249
1650361755658.999,201.20955315870572,1220.5128205128203
1650361755659.3162,201.0030785017958,1215.3846153846152
1650361755660.274,201.20955315870572,1212.4542124542124
1650361755679.0928,201.20955315870572,1212.4542124542124
1650361755681.5742,201.20955315870572,1213.1868131868132
1650361755682.7568,201.0030785017958,1218.3150183150183
1650361755683.944,201.0030785017958,1224.1758241758241
1650361755693.978,201.20955315870572,1235.164835164835
1650361755718.857,201.0030785017958,1253.4798534798533
1650361755719.027,201.20955315870572,1275.4578754578754
1650361755720.192,201.0030785017958,1300.3663003663003
1650361755741.4802,201.20955315870572,1326.7399267399267
1650361755743.874,201.20955315870572,1353.8461538461538
1650361755745.028,201.20955315870572,1382.4175824175823
1650361755745.126,201.20955315870572,1406.5934065934066
1650361755752.821,201.20955315870572,1430.03663003663
1650361755778.898,201.0030785017958,1450.5494505494505
1650361755779.003,201.20955315870572,1465.201465201465
1650361755780.231,201.20955315870572,1471.062271062271
1650361755802.735,201.20955315870572,1470.3296703296703
1650361755803.8,201.4164524421594,1459.3406593406592
1650361755803.924,201.20955315870572,1443.2234432234432
1650361755813.987,201.4164524421594,1423.4432234432234
1650361755814.249,201.20955315870572,1397.069597069597
1650361755839.0579,201.4164524421594,1367.7655677655678
1650361755839.2861,201.4164524421594,1334.065934065934
1650361755840.2058,201.4164524421594,1298.168498168498
1650361755862.706,201.4164524421594,1262.2710622710622
1650361755863.867,201.4164524421594,1230.7692307692307
1650361755865.0789,201.62377766340714,1199.2673992673992
1650361755865.265,201.4164524421594,1172.8937728937728
1650361755891.4868,201.4164524421594,1147.2527472527472
1650361755892.745,201.4164524421594,1124.5421245421244
1650361755918.996,201.62377766340714,1108.4249084249084
1650361755919.249,201.4164524421594,1096.7032967032967
1650361755921.556,201.62377766340714,1084.981684981685
1650361755923.115,201.62377766340714,1078.3882783882784
1650361755930.1191,201.62377766340714,1073.9926739926739
1650361755930.267,201.62377766340714,1073.260073260073
1650361755958.972,201.4164524421594,1077.6556776556777
1650361755960.167,201.62377766340714,1082.051282051282
1650361755960.405,201.62377766340714,1084.981684981685
1650361755978.971,201.4164524421594,1092.3076923076922
1650361755981.571,201.62377766340714,1099.6336996336995
1650361755982.5981,201.62377766340714,1106.227106227106
1650361755992.6208,201.8315301391036,1112.8205128205127
1650361755992.794,201.62377766340714,1116.4835164835165
1650361756018.986,201.4164524421594,1123.076923076923
1650361756020.309,201.8315301391036,1128.937728937729
1650361756020.518,201.8315301391036,1135.5311355311355
1650361756037.7568,201.62377766340714,1141.3919413919414
1650361756038.929,201.8315301391036,1145.7875457875457
1650361756041.4988,201.62377766340714,1149.4505494505493
1650361756066.5122,201.8315301391036,1153.8461538461538
1650361756066.772,201.62377766340714,1158.974358974359
1650361756067.728,201.8315301391036,1163.3699633699632
1650361756099.0269,201.8315301391036,1164.102564102564
1650361756102.721,201.62377766340714,1165.5677655677655
1650361756102.994,201.8315301391036,1169.230769230769
1650361756104.019,201.8315301391036,1171.4285714285713
1650361756105.1062,201.8315301391036,1174.3589743589744
1650361756137.695,201.8315301391036,1173.6263736263736
1650361756138.01,201.8315301391036,1173.6263736263736
1650361756138.97,202.03971119133575,1173.6263736263736
1650361756158.999,201.8315301391036,1174.3589743589744
1650361756161.8518,201.8315301391036,1173.6263736263736
1650361756162.122,201.8315301391036,1172.8937728937728
1650361756163.3142,201.62377766340714,1171.4285714285713
1650361756188.965,202.03971119133575,1170.6959706959706
1650361756213.8591,201.8315301391036,1168.4981684981685
1650361756214.0,201.8315301391036,1164.8351648351647
1650361756215.2341,201.8315301391036,1164.8351648351647
1650361756226.5251,202.03971119133575,1163.3699633699632
1650361756226.734,202.03971119133575,1161.1721611721612
1650361756229.0398,202.03971119133575,1160.4395604395604
1650361756230.636,202.03971119133575,1157.5091575091574
1650361756231.8162,201.8315301391036,1153.113553113553
1650361756262.605,202.03971119133575,1150.18315018315
1650361756262.759,201.8315301391036,1149.4505494505493
1650361756264.2861,202.24832214765104,1150.18315018315
1650361756281.384,202.03971119133575,1149.4505494505493
1650361756281.533,202.24832214765104,1149.4505494505493
1650361756282.737,202.03971119133575,1149.4505494505493
1650361756283.9092,202.03971119133575,1149.4505494505493
1650361756293.865,202.24832214765104,1150.18315018315
1650361756318.873,201.8315301391036,1152.3809523809523
1650361756319.0762,202.03971119133575,1156.7765567765566
1650361756320.211,202.03971119133575,1162.6373626373625
1650361756338.8828,202.24832214765104,1167.032967032967
1650361756339.025,202.24832214765104,1169.230769230769
1650361756342.1099,202.03971119133575,1169.9633699633698
1650361756342.7278,202.03971119133575,1169.230769230769
1650361756352.731,202.24832214765104,1168.4981684981685
1650361756378.983,202.03971119133575,1167.032967032967
1650361756379.087,202.03971119133575,1165.5677655677655
1650361756380.25,202.24832214765104,1164.102564102564
1650361756405.427,202.24832214765104,1164.102564102564
1650361756406.518,202.24832214765104,1170.6959706959706
1650361756406.7422,202.24832214765104,1187.5457875457876
1650361756412.832,202.24832214765104,1221.9780219780218
1650361756413.816,202.03971119133575,1281.3186813186812
1650361756439.01,202.24832214765104,1367.032967032967
1650361756439.1501,202.24832214765104,1482.051282051282
1650361756440.234,202.24832214765104,1627.106227106227
1650361756465.241,202.24832214765104,1793.4065934065932
1650361756466.435,202.03971119133575,1977.2893772893772
1650361756466.581,202.24832214765104,2164.102564102564
1650361756472.868,202.45736434108528,2351.6483516483513
1650361756498.941,202.24832214765104,2526.007326007326
1650361756500.0898,202.24832214765104,2679.1208791208787
1650361756500.195,202.24832214765104,2783.150183150183
1650361756525.2532,202.24832214765104,2784.6153846153843
1650361756526.459,202.45736434108528,2783.8827838827838
1650361756528.861,202.24832214765104,2783.8827838827838
1650361756529.034,202.24832214765104,2783.8827838827838
1650361756530.168,202.24832214765104,2783.8827838827838
1650361756557.7458,202.24832214765104,2723.076923076923
1650361756559.02,202.45736434108528,2609.523809523809
1650361756559.693,202.24832214765104,2464.4688644688645
1650361756576.588,202.24832214765104,2302.5641025641025
1650361756577.7969,202.45736434108528,2131.135531135531
1650361756588.881,202.45736434108528,1959.7069597069597
1650361756589.093,202.45736434108528,1797.8021978021977
1650361756614.042,202.66683911019143,1649.084249084249
1650361756615.364,202.45736434108528,1517.216117216117
1650361756615.758,202.45736434108528,1407.3260073260071
1650361756641.543,202.45736434108528,1318.6813186813185
1650361756642.8362,202.66683911019143,1251.2820512820513
1650361756646.405,202.66683911019143,1204.3956043956043
1650361756646.507,202.66683911019143,1172.8937728937728
1650361756648.993,202.66683911019143,1153.113553113553
1650361756675.2,202.66683911019143,1144.3223443223442
1650361756676.416,202.87674779906786,1139.9267399267399
1650361756701.452,202.87674779906786,1139.9267399267399
1650361756701.7341,202.66683911019143,1142.857142857143
1650361756702.6929,202.87674779906786,1147.2527472527472
1650361756703.9722,202.66683911019143,1153.8461538461538
1650361756709.443,202.87674779906786,1163.3699633699632
1650361756709.5488,202.87674779906786,1172.8937728937728
1650361756739.0698,202.87674779906786,1188.278388278388
1650361756740.159,202.87674779906786,1205.8608058608058
1650361756762.7449,202.87674779906786,1227.8388278388277
1650361756763.0461,202.87674779906786,1254.212454212454
1650361756763.983,202.87674779906786,1285.7142857142856
1650361756765.238,202.87674779906786,1317.9487179487178
1650361756771.388,203.08709175738727,1352.3809523809523
1650361756771.585,202.87674779906786,1384.6153846153845
1650361756801.744,202.66683911019143,1416.8498168498168
1650361756802.587,203.08709175738727,1443.956043956044
1650361756817.648,202.87674779906786,1464.4688644688645
1650361756817.805,202.87674779906786,1476.1904761904761
1650361756819.033,202.87674779906786,1480.5860805860805
1650361756821.462,202.87674779906786,1478.3882783882782
1650361756857.606,203.08709175738727,1468.131868131868
1650361756858.112,202.87674779906786,1451.2820512820513
1650361756859.0032,202.87674779906786,1428.5714285714284
1650361756878.908,203.08709175738727,1402.9304029304028
1650361756881.4631,203.08709175738727,1371.4285714285713
1650361756881.673,203.08709175738727,1338.4615384615383
1650361756882.8289,203.08709175738727,1304.7619047619046
1650361756883.958,203.08709175738727,1271.062271062271
1650361756893.88,203.08709175738727,1237.3626373626373
1650361756893.993,202.87674779906786,1207.3260073260074
1650361756919.012,203.29787234042556,1177.2893772893772
1650361756920.073,203.29787234042556,1148.7179487179487
1650361756941.3481,203.08709175738727,1123.8095238095236
1650361756941.504,203.29787234042556,1103.2967032967033
1650361756942.7158,203.08709175738727,1087.9120879120878
1650361756950.216,203.29787234042556,1074.7252747252746
1650361756950.4958,203.29787234042556,1065.2014652014652
1650361756982.737,203.29787234042556,1059.3406593406592
1650361756983.9338,203.29787234042556,1059.3406593406592
1650361756998.88,203.29787234042556,1060.07326007326
1650361757001.447,203.29787234042556,1063.003663003663
1650361757001.645,203.29787234042556,1068.131868131868
1650361757002.701,203.29787234042556,1074.7252747252746
1650361757029.0068,203.29787234042556,1082.7838827838827
1650361757053.978,203.08709175738727,1091.5750915750914
1650361757054.304,203.29787234042556,1097.4358974358975
1650361757055.776,203.29787234042556,1106.227106227106
1650361757058.9868,203.29787234042556,1115.018315018315
1650361757059.2908,203.50909090909093,1122.3443223443223
1650361757061.465,203.29787234042556,1129.6703296703297
1650361757068.9758,203.29787234042556,1134.7985347985348
1650361757096.53,203.50909090909093,1140.6593406593406
1650361757096.7642,203.50909090909093,1146.5201465201465
1650361757121.501,203.50909090909093,1150.9157509157508
1650361757122.6921,203.29787234042556,1156.7765567765566
1650361757123.842,203.50909090909093,1161.904761904762
1650361757124.013,203.29787234042556,1167.032967032967
1650361757125.208,203.50909090909093,1169.230769230769
1650361757126.463,203.50909090909093,1171.4285714285713
1650361757151.402,203.50909090909093,1171.4285714285713
1650361757151.56,203.50909090909093,1171.4285714285713
1650361757152.7268,203.7207488299532,1171.4285714285713
1650361757181.5369,203.7207488299532,1170.6959706959706
1650361757182.558,203.50909090909093,1172.161172161172
1650361757183.9011,203.93284747527332,1173.6263736263736
1650361757184.093,203.50909090909093,1174.3589743589744
1650361757189.08,203.7207488299532,1174.3589743589744
1650361757217.617,203.50909090909093,1172.8937728937728
1650361757217.77,203.50909090909093,1171.4285714285713
1650361757218.9382,203.7207488299532,1168.4981684981685
1650361757237.731,203.7207488299532,1168.4981684981685
1650361757238.8179,203.93284747527332,1166.3003663003662
1650361757241.2988,203.7207488299532,1164.8351648351647
1650361757241.561,203.7207488299532,1161.1721611721612
1650361757251.558,203.93284747527332,1158.2417582417581
1650361757278.835,203.93284747527332,1151.6483516483515
1650361757279.0078,203.7207488299532,1146.5201465201465
1650361757280.165,203.7207488299532,1142.1245421245421
1650361757304.211,203.93284747527332,1140.6593406593406
1650361757305.1091,203.93284747527332,1142.1245421245421
1650361757306.53,203.93284747527332,1144.3223443223442
1650361757306.8281,203.7207488299532,1149.4505494505493
1650361757331.6099,203.93284747527332,1154.5787545787546
1650361757332.597,203.7207488299532,1157.5091575091574
1650361757332.7798,203.93284747527332,1157.5091575091574
1650361757357.835,203.7207488299532,1156.0439560439559
1650361757358.98,203.93284747527332,1153.113553113553
1650361757370.2358,204.14538822303285,1147.985347985348
1650361757371.327,203.93284747527332,1141.3919413919414
1650361757371.447,203.93284747527332,1139.194139194139
1650361757399.042,203.93284747527332,1138.4615384615383
1650361757400.228,203.93284747527332,1142.857142857143
1650361757425.111,204.14538822303285,1153.8461538461538
1650361757428.62,203.93284747527332,1174.3589743589744
1650361757428.742,204.14538822303285,1213.1868131868132
1650361757430.165,203.93284747527332,1273.260073260073
1650361757430.288,203.93284747527332,1360.4395604395604
1650361757459.089,204.14538822303285,1474.7252747252746
1650361757460.242,203.93284747527332,1616.117216117216
1650361757485.518,204.14538822303285,1775.8241758241757
1650361757485.716,204.14538822303285,1948.7179487179485
1650361757486.4622,203.93284747527332,2121.6117216117214
1650361757488.961,204.14538822303285,2287.912087912088
1650361757490.06,204.14538822303285,2435.8974358974356
1650361757491.2888,204.14538822303285,2558.974358974359
1650361757491.421,204.14538822303285,2647.6190476190473
1650361757520.3381,203.93284747527332,2701.8315018315016
1650361757521.4219,204.14538822303285,2715.7509157509157
1650361757521.62,204.14538822303285,2691.5750915750914
1650361757546.5889,204.14538822303285,2631.5018315018315
1650361757551.464,204.14538822303285,2542.8571428571427
1650361757552.5588,204.14538822303285,2425.6410256410254
1650361757553.8298,204.35837245696402,2292.3076923076924
1650361757553.955,204.14538822303285,2145.7875457875457
1650361757579.0142,203.93284747527332,1997.8021978021977
1650361757580.118,204.35837245696402,1848.3516483516482
1650361757580.246,204.57180156657964,1707.6923076923076
